wavelength	absor
360	0.318458418
361	0.319837728
362	0.321217039
363	0.323935091
364	0.327383367
365	0.330831643
366	0.334279919
367	0.337728195
368	0.341176471
369	0.344624746
370	0.348073022
371	0.351521298
372	0.355326572
373	0.360292089
374	0.365257606
375	0.370223124
376	0.375188641
377	0.380154158
378	0.384219067
379	0.38663286
380	0.389046653
381	0.391460446
382	0.393874239
383	0.396288032
384	0.398701826
385	0.401115619
386	0.403529412
387	0.405943205
388	0.416470588
389	0.427505071
390	0.4336714
391	0.43643002
392	0.439188641
393	0.441947262
394	0.444705882
395	0.447464503
396	0.450223124
397	0.454077079
398	0.458904665
399	0.463732252
400	0.468559838
401	0.473387424
402	0.47954023
403	0.485977011
404	0.492413793
405	0.497227857
406	0.498147397
407	0.499066937
408	0.499986477
409	0.500906018
410	0.501825558
411	0.502745098
412	0.504259635
413	0.507707911
414	0.511156187
415	0.514604462
416	0.518052738
417	0.519884092
418	0.52027818
419	0.520672269
420	0.521066358
421	0.521460446
422	0.521854535
423	0.522248624
424	0.522642712
425	0.522596349
426	0.521492901
427	0.520389452
428	0.519286004
429	0.518182556
430	0.517079108
431	0.515618661
432	0.513648218
433	0.511677775
434	0.509707331
435	0.507736888
436	0.505766445
437	0.503796001
438	0.501825558
439	0.498498986
440	0.488843813
441	0.479188641
442	0.470808006
443	0.462700487
444	0.454592968
445	0.448215154
446	0.442140917
447	0.436066679
448	0.429992441
449	0.423918204
450	0.415190952
451	0.40620635
452	0.397221747
453	0.390400836
454	0.385804952
455	0.381209069
456	0.376613185
457	0.372017301
458	0.367421417
459	0.363544306
460	0.359768134
461	0.355991961
462	0.352215788
463	0.348439616
464	0.344663443
465	0.34088727
466	0.333553903
467	0.32585415
468	0.318154396
469	0.313219055
470	0.309412429
471	0.305605803
472	0.301799177
473	0.29799255
474	0.294185924
475	0.290379298
476	0.28763383
477	0.284983882
478	0.282333935
479	0.279683987
480	0.277034039
481	0.274384091
482	0.271734144
483	0.269084196
484	0.267878423
485	0.266787961
486	0.2656975
487	0.264607039
488	0.263516577
489	0.262426116
490	0.261335655
491	0.260245194
492	0.259154732
493	0.259302732
494	0.259481531
495	0.259660331
496	0.25983913
497	0.26001793
498	0.260196729
499	0.260375529
500	0.260554328
501	0.261186716
502	0.262680019
503	0.264173321
504	0.265666624
505	0.267159927
506	0.26865323
507	0.270146533
508	0.271639836
509	0.273133139
510	0.275123505
511	0.277513115
512	0.279902726
513	0.282292336
514	0.284681946
515	0.287071557
516	0.289461167
517	0.291850778
518	0.294349852
519	0.297408402
520	0.300466951
521	0.3035255
522	0.30658405
523	0.309642599
524	0.312701148
525	0.315759698
526	0.318782961
527	0.321541582
528	0.324300203
529	0.327058824
530	0.329817444
531	0.332576065
532	0.335334686
533	0.338093306
534	0.340851927
535	0.345239989
536	0.34984531
537	0.354450631
538	0.359055952
539	0.363661272
540	0.368266593
541	0.372198068
542	0.375948068
543	0.379698068
544	0.383448068
545	0.387198068
546	0.390948068
547	0.394786382
548	0.398760109
549	0.402733837
550	0.406707564
551	0.410681292
552	0.414655019
553	0.418864038
554	0.423424207
555	0.427984376
556	0.432544545
557	0.437104714
558	0.441664883
559	0.445952365
560	0.450174743
561	0.454397122
562	0.458619501
563	0.462841879
564	0.467117376
565	0.471588766
566	0.476060157
567	0.480531548
568	0.485002938
569	0.489485424
570	0.494542895
571	0.499600366
572	0.504657838
573	0.509715309
574	0.514606729
575	0.518923275
576	0.523239822
577	0.527556369
578	0.531872916
579	0.536189462
580	0.540550322
581	0.545702842
582	0.550855362
583	0.556007882
584	0.561160402
585	0.566479565
586	0.57201449
587	0.577549414
588	0.583084339
589	0.588619264
590	0.594020438
591	0.599001281
592	0.603982124
593	0.608962967
594	0.613943809
595	0.618879903
596	0.623760539
597	0.628641176
598	0.633521812
599	0.638402449
600	0.643327682
601	0.648385153
602	0.653442624
603	0.658500096
604	0.663557567
605	0.668617253
606	0.673713038
607	0.678808824
608	0.683904609
609	0.689000395
610	0.693967846
611	0.698575652
612	0.703183458
613	0.707791264
614	0.71239907
615	0.71700232
616	0.721543723
617	0.726085126
618	0.730626529
619	0.735167931
620	0.739709334
621	0.744287332
622	0.748905832
623	0.753524332
624	0.758142832
625	0.762761333
626	0.767379833
627	0.771733934
628	0.775802899
629	0.779871865
630	0.78394083
631	0.788009796
632	0.792078761
633	0.796153904
634	0.800235536
635	0.804317169
636	0.808398802
637	0.812480434
638	0.816562067
639	0.820970725
640	0.825418297
641	0.829865869
642	0.834313441
643	0.838761014
644	0.843200149
645	0.847619572
646	0.852038995
647	0.856458418
648	0.860877841
649	0.865297264
650	0.868783941
651	0.871881737
652	0.874979532
653	0.878077327
654	0.881175123
655	0.884272918
656	0.887370713
657	0.893677354
658	0.901100583
659	0.908523812
660	0.91594704
661	0.92061237
662	0.925029448
663	0.929446525
664	0.933863602
665	0.938280679
666	0.94239857
667	0.946401854
668	0.950405138
669	0.954408422
670	0.958411706
671	0.96241499
672	0.965887008
673	0.969162045
674	0.972437083
675	0.97571212
676	0.978987157
677	0.982262194
678	0.985537231
679	0.988510369
680	0.989593299
681	0.990676229
682	0.991759158
683	0.992842088
684	0.993925018
685	0.995007947
686	0.996090877
687	0.997173806
688	0.997330673
689	0.995746556
690	0.994162439
691	0.992578322
692	0.990994205
693	0.989410088
694	0.987825971
695	0.986241854
696	0.983814375
697	0.979860352
698	0.975906329
699	0.971952306
700	0.967998283
701	0.96404426
702	0.959465508
703	0.953787347
704	0.948109186
705	0.942431025
706	0.935863602
707	0.927760154
708	0.919656706
709	0.911587101
710	0.903682591
711	0.895778082
712	0.887902294
713	0.880534758
714	0.873167223
715	0.865799687
716	0.855716795
717	0.844854726
718	0.835114216
719	0.827206559
720	0.819298903
721	0.81138275
722	0.802757063
723	0.794131375
724	0.785857722
725	0.778143801
726	0.77042988
727	0.76271596
728	0.754834845
729	0.746909284
730	0.738983723
731	0.731349348
732	0.724925703
733	0.718502058
734	0.712078412
735	0.705654767
736	0.699394677
737	0.693380884
738	0.687367091
739	0.681353298
740	0.675330737
741	0.66929521
742	0.663259682
743	0.657224154
744	0.651199167
745	0.646459999
746	0.64172083
747	0.636981661
748	0.632242492
749	0.627503323
750	0.623184691
751	0.618962312
752	0.614739933
753	0.610517555
754	0.606295176
755	0.602033613
756	0.597632956
757	0.593232299
758	0.588831643
759	0.584430986
760	0.580019481
761	0.575191895
762	0.570364308
763	0.565536722
764	0.560709136
765	0.555802035
766	0.550629621
767	0.545457207
768	0.540284793
769	0.53511238
770	0.529643984
771	0.523792364
772	0.517940744
773	0.512089125
774	0.506182733
775	0.498979668
776	0.491776603
777	0.484573538
778	0.476972292
779	0.468873265
780	0.460774237
781	0.452520758
782	0.443950531
783	0.435380303
784	0.42681521
785	0.41834499
786	0.409874771
787	0.401404551
788	0.392973649
789	0.384546547
790	0.376119444
791	0.367822158
792	0.359592273
793	0.351362388
794	0.342951951
795	0.334449114
796	0.325946277
797	0.317878157
798	0.310236333
799	0.302594509
