Wavelength (nm),Absorbance
400,0.152486054078
401,0.154446839294
402,0.15640762451
403,0.158712241445
404,0.161244268415
405,0.163776295385
406,0.166308322355
407,0.168840349325
408,0.171372376295
409,0.173904403265
410,0.176436430235
411,0.178968457205
412,0.181500484175
413,0.184032511145
414,0.186645789316
415,0.189290574956
416,0.191935360596
417,0.194580146237
418,0.197224931877
419,0.199869717517
420,0.202514503157
421,0.205159288797
422,0.207804074437
423,0.210448860077
424,0.213619527696
425,0.217525362499
426,0.221431197302
427,0.225337032105
428,0.229242866908
429,0.233148701712
430,0.237054536515
431,0.240960371318
432,0.244866206121
433,0.248908661769
434,0.25299654206
435,0.257084422351
436,0.261172302642
437,0.265260182933
438,0.269348063224
439,0.273435943515
440,0.277569993027
441,0.282642656167
442,0.287715319306
443,0.292787982445
444,0.297860645585
445,0.302933308724
446,0.308005971863
447,0.313078635003
448,0.318786935963
449,0.32463029014
450,0.330473644316
451,0.336316998493
452,0.34216035267
453,0.348373765872
454,0.354917269693
455,0.361460773514
456,0.368004277335
457,0.374547781157
458,0.381091284978
459,0.387765227021
460,0.394482452183
461,0.401199677344
462,0.407916902506
463,0.41476712106
464,0.421802835346
465,0.428838549632
466,0.435874263917
467,0.442909978203
468,0.449945692489
469,0.456981406775
470,0.46405828016
471,0.471154796914
472,0.478251313669
473,0.485347830424
474,0.492444347179
475,0.499540863934
476,0.506835775633
477,0.51415291849
478,0.521470061348
479,0.528787204205
480,0.536162275074
481,0.544165038154
482,0.552167801235
483,0.560170564315
484,0.568173327396
485,0.577147346747
486,0.586443017743
487,0.595738688738
488,0.605034359734
489,0.61433003073
490,0.6228286268
491,0.630372476006
492,0.637916325212
493,0.645460174419
494,0.651983205502
495,0.657834719317
496,0.663686233132
497,0.669537746948
498,0.675389260763
499,0.681240774579
500,0.687092288394
501,0.692943802209
502,0.698795316025
503,0.70464682984
504,0.708503266595
505,0.712305833713
506,0.71610840083
507,0.719910967947
508,0.723713535065
509,0.727516102182
510,0.731318669299
511,0.735778907875
512,0.740456515818
513,0.745134123761
514,0.749811731705
515,0.754489339648
516,0.759166947591
517,0.763844555534
518,0.768522163477
519,0.775203334954
520,0.781986188178
521,0.788769041402
522,0.795551894625
523,0.802334747849
524,0.809608349149
525,0.817043988247
526,0.824479627344
527,0.831915266442
528,0.838760102044
529,0.842872254288
530,0.846984406532
531,0.851096558777
532,0.855208711021
533,0.859320863266
534,0.86343301551
535,0.867545167755
536,0.866291041326
537,0.862896960638
538,0.85950287995
539,0.856108799263
540,0.852714718575
541,0.849320637887
542,0.845926557199
543,0.842532476511
544,0.839138395823
545,0.835744315136
546,0.832350234448
547,0.827677696793
548,0.816269168196
549,0.8048606396
550,0.793452111003
551,0.782043582407
552,0.772669859239
553,0.763724037453
554,0.754778215668
555,0.745832393882
556,0.73923676948
557,0.735058314082
558,0.730879858684
559,0.726701403287
560,0.722522947889
561,0.718344492491
562,0.714166037093
563,0.714748151391
564,0.718102686007
565,0.721457220622
566,0.724811755237
567,0.728166289852
568,0.731520824467
569,0.734875359082
570,0.738229893697
571,0.741665918296
572,0.745970347063
573,0.750274775831
574,0.754579204598
575,0.758883633365
576,0.763188062133
577,0.7674924909
578,0.76852285602
579,0.767239012943
580,0.765955169867
581,0.76467132679
582,0.763387483713
583,0.762103640637
584,0.76081979756
585,0.759535954484
586,0.758252111407
587,0.756968268331
588,0.746512247046
589,0.732411864918
590,0.71831148279
591,0.704211100662
592,0.688642114908
593,0.670701043479
594,0.65388405843
595,0.638405487001
596,0.617659191584
597,0.592252445552
598,0.56684569952
599,0.541397147296
600,0.515925255761
601,0.479214672432
602,0.431320445077
603,0.410682349839
604,0.390044254601
605,0.3639349325
606,0.336964694405
607,0.309334406476
608,0.282916778678
609,0.259012722241
610,0.234997958012
611,0.211544126556
612,0.192368547852
613,0.173192969148
614,0.160810206633
615,0.149996893781
616,0.139183580929
617,0.128207912558
618,0.117198322611
619,0.106188732664
620,0.0951791427165
621,0.0904660268242
622,0.08591185507
623,0.0813576833158
624,0.0768035115617
625,0.0722493398075
626,0.0676951680533
627,0.0631409962991
628,0.0590667004953
629,0.0576817891104
630,0.0562968777254
631,0.0549119663405
632,0.0535270549556
633,0.0521421435707
634,0.0507572321858
635,0.0493723208009
636,0.047987409416
637,0.0466024980311
638,0.0452175866462
639,0.043989095337
640,0.0433947099245
641,0.0428003245119
642,0.0422059390993
643,0.0416115536868
644,0.0410171682742
645,0.0404227828616
646,0.0398283974491
647,0.0392340120365
648,0.0386396266239
649,0.0380452412114
650,0.0376464302167
651,0.0373750803544
652,0.0371037304921
653,0.0368323806299
654,0.0365610307676
655,0.0362896809054
656,0.0360183310431
657,0.0357469811808
658,0.0354756313186
659,0.0352042814563
660,0.0349334349667
661,0.0347008493704
662,0.0344682637742
663,0.034235678178
664,0.0340030925818
665,0.0337705069855
666,0.0335379213893
667,0.0333053357931
668,0.0330727501969
669,0.0328401646007
670,0.0326075790044
671,0.0324347677055
672,0.0323443177514
673,0.0322538677974
674,0.0321634178433
675,0.0320729678892
676,0.0319825179351
677,0.031892067981
678,0.0318016180269
679,0.0317111680728
680,0.0316207181188
681,0.0315302681647
682,0.0314398182106
683,0.0313493682565
684,0.0312589183024
685,0.0311684683483
686,0.0310780183942
687,0.0309875684402
688,0.0308971184861
689,0.030806668532
690,0.0307162185779
691,0.0306257686238
692,0.030520093283
693,0.0303650362189
694,0.0302099791547
695,0.0300549220906
696,0.0298998650264
697,0.0297448079623
698,0.0295897508981
699,0.029434693834
700,0.0292796367698
701,0.0291245797057
702,0.0289695226415
703,0.0289142013395
704,0.0289142013395
705,0.0289142013395
706,0.0289142013395
707,0.0289142013395
708,0.0289142013395
709,0.0289142013395
710,0.0289142013395
711,0.0289142013395
712,0.0289142013395
713,0.0289142013395
714,0.0289142013395
715,0.0289142013395
716,0.0289142013395
717,0.0289142013395
718,0.0289142013395
719,0.0289142013395
720,0.0289142013395
721,0.0289142013395
722,0.0289142013395
723,0.0289142013395
724,0.0289142013395
725,0.0289142013395
726,0.0289142013395
727,0.0289142013395
728,0.0289142013395
729,0.0289142013395
730,0.0289142013395
731,0.0289142013395
732,0.0289142013395
733,0.0289142013395
734,0.0289142013395
735,0.0289925215393
736,0.0290829714934
737,0.0291734214475
738,0.0292638714016
739,0.0293543213557
740,0.0294447713098
741,0.0295352212639
742,0.0296256712179
743,0.029716121172
744,0.0298065711261
745,0.0299252883933
746,0.0301191097235
747,0.0303129310536
748,0.0305067523838
749,0.030700573714
750,0.0308943950442
751,0.0310882163744
752,0.0312820377046
753,0.0314758590348
754,0.0316696803649
755,0.0318635016951
756,0.0319341279211
757,0.0319470493432
758,0.0319599707652
759,0.0319728921872
760,0.0319858136092
761,0.0319987350312
762,0.0320116564532
763,0.0320245778752
764,0.0320374992972
765,0.0320504207193
766,0.0320862314302
767,0.0323575812925
768,0.0326289311548
769,0.032900281017
770,0.0331716308793
771,0.0334429807415
772,0.0337143306038
773,0.033985680466
774,0.0342570303283
775,0.0345283801906
776,0.0347997300528
777,0.0349428659028
778,0.0349557873249
779,0.0349687087469
780,0.0349816301689
781,0.0349945515909
782,0.0350074730129
783,0.0350203944349
784,0.0350333158569
785,0.0350462372789
786,0.035059158701
787,0.035072080123
788,0.035190093976
789,0.0353193081961
790,0.0354485224162
791,0.0355777366363
792,0.0357069508565
793,0.0358361650766
794,0.0359653792967
795,0.0360945935168
796,0.0362238077369
797,0.0363530219571
798,0.0364540839207
799,0.0364928481867
