Wavelength (nm),Absorbance
320,0.163450708756
321,0.162166174495
322,0.160881640234
323,0.159597105973
324,0.158312571712
325,0.15702803745
326,0.155743503189
327,0.154458968928
328,0.153174434667
329,0.152270541433
330,0.15240886987
331,0.152547198308
332,0.152685526745
333,0.152823855183
334,0.15296218362
335,0.153100512057
336,0.153238840495
337,0.153377168932
338,0.15351549737
339,0.153653825807
340,0.154706539997
341,0.156740021597
342,0.158773503197
343,0.160806984797
344,0.162840466397
345,0.164873947997
346,0.166907429597
347,0.168940911197
348,0.170974392797
349,0.172816326531
350,0.174603174603
351,0.176390022676
352,0.178176870748
353,0.179963718821
354,0.181750566893
355,0.183537414966
356,0.185243619054
357,0.18691011209
358,0.188576605125
359,0.190243098161
360,0.191909591196
361,0.195626235446
362,0.199634759741
363,0.203643284036
364,0.20765180833
365,0.210951498468
366,0.213630114868
367,0.216308731268
368,0.218987347667
369,0.221665964067
370,0.224476785139
371,0.228458700033
372,0.232440614926
373,0.23642252982
374,0.240404444714
375,0.244386359607
376,0.248368274501
377,0.252350189395
378,0.256365992501
379,0.262081916927
380,0.267797841354
381,0.27351376578
382,0.279229690206
383,0.284945614633
384,0.290661539059
385,0.296470137335
386,0.302600018917
387,0.3087299005
388,0.314859782082
389,0.320989663664
390,0.327119545246
391,0.333432895639
392,0.340729191935
393,0.348025488231
394,0.355321784528
395,0.362618080824
396,0.36991437712
397,0.377872982627
398,0.386914045429
399,0.395955108231
400,0.404996171033
401,0.414466838932
402,0.424132062597
403,0.433797286262
404,0.443552576069
405,0.453789726485
406,0.464026876901
407,0.474264027316
408,0.484970020566
409,0.495802787006
410,0.506635553446
411,0.51734418341
412,0.527879141838
413,0.538414100265
414,0.548980224648
415,0.560185251103
416,0.571390277558
417,0.582595304013
418,0.593872814981
419,0.605450101451
420,0.617027387921
421,0.628604674391
422,0.639046473961
423,0.649246398375
424,0.659446322789
425,0.669895569662
426,0.680644577598
427,0.691393585535
428,0.702142593471
429,0.712361923548
430,0.722231467199
431,0.73210101085
432,0.741970554501
433,0.751180080947
434,0.760170160312
435,0.769160239677
436,0.778150319042
437,0.787052581013
438,0.795944942124
439,0.804837303235
440,0.813662166675
441,0.821114812178
442,0.828567457681
443,0.836020103183
444,0.843472748686
445,0.850667300943
446,0.857008129867
447,0.863348958791
448,0.869689787715
449,0.876030616639
450,0.882371445564
451,0.888435963016
452,0.894168767249
453,0.899901571481
454,0.905634375714
455,0.911367179947
456,0.915272855342
457,0.918149410004
458,0.921025964666
459,0.923902519328
460,0.926779073991
461,0.929655628653
462,0.932532183315
463,0.935408737978
464,0.93828529264
465,0.941161847302
466,0.941608750811
467,0.939890031665
468,0.938171312518
469,0.936452593372
470,0.934733874225
471,0.933015155079
472,0.931296435933
473,0.929577716786
474,0.92785899764
475,0.924984805938
476,0.920231045545
477,0.915477285152
478,0.910723524759
479,0.905969764366
480,0.901216003973
481,0.89646224358
482,0.891579191558
483,0.886010181732
484,0.880441171906
485,0.87487216208
486,0.869303152254
487,0.863734142428
488,0.857570738807
489,0.850441214998
490,0.843311691188
491,0.836182167379
492,0.829052643569
493,0.821012377027
494,0.812274193605
495,0.803536010184
496,0.794797826762
497,0.785409313532
498,0.773878559563
499,0.762347805595
500,0.750817051627
501,0.740360683221
502,0.731649234502
503,0.722937785782
504,0.706966643926
505,0.684922748975
506,0.666237735332
507,0.648803546792
508,0.630917346323
509,0.613602448021
510,0.601582644012
511,0.585743799524
512,0.562494876496
513,0.540774652142
514,0.519377146473
515,0.517619047619
516,0.471207331785
517,0.452328880864
518,0.432870152797
519,0.412895743986
520,0.394715686939
521,0.381090970386
522,0.361748117679
523,0.33968550745
524,0.322092297346
525,0.305974817432
526,0.289857337518
527,0.274222897351
528,0.258665186201
529,0.243107475051
530,0.231028142523
531,0.219041370036
532,0.207170089121
533,0.196538343089
534,0.185906597057
535,0.175274851026
536,0.165489844434
537,0.158485399989
538,0.151480955545
539,0.144476511101
540,0.137472066656
541,0.13164920569
542,0.12746686442
543,0.12328452315
544,0.119102181881
545,0.114919840611
546,0.110737499341
547,0.106555158071
548,0.102372816801
549,0.0998691610413
550,0.0980343191156
551,0.0961994771898
552,0.0943646352641
553,0.0925297933383
554,0.0906949514126
555,0.0888601094868
556,0.0870252675611
557,0.0851904256353
558,0.0833555837096
559,0.0816348393124
560,0.0807302381614
561,0.0798256370104
562,0.0789210358594
563,0.0780164347084
564,0.0771118335574
565,0.0762072324064
566,0.0753026312554
567,0.0743980301045
568,0.0734934289535
569,0.0727511895558
570,0.0721905159899
571,0.071629842424
572,0.0710691688581
573,0.0705084952922
574,0.0699478217263
575,0.0693871481604
576,0.0688264745945
577,0.0682658010286
578,0.0677051274627
579,0.067294675358
580,0.0669079357929
581,0.0665211962278
582,0.0661344566627
583,0.0657477170976
584,0.0653609775325
585,0.0649742379674
586,0.0645874984023
587,0.0642007588372
588,0.0638140192721
589,0.0634394495556
590,0.0631253602982
591,0.0628112710409
592,0.0624971817836
593,0.0621830925262
594,0.0618690032689
595,0.0615549140116
596,0.0612408247542
597,0.0609267354969
598,0.0606253724754
599,0.0603692601391
600,0.0601131478028
601,0.0598570354665
602,0.0596009231302
603,0.0593448107939
604,0.0590886984576
605,0.0588325861213
606,0.058576473785
607,0.0583203614487
608,0.0580681230914
609,0.0581284230608
610,0.0581887230302
611,0.0582490229996
612,0.0583093229689
613,0.0583696229383
614,0.0584299229077
615,0.0584902228771
616,0.0585505228465
617,0.0586108228159
618,0.0586711227853
619,0.0585391284954
620,0.0581413690627
621,0.0577436096301
622,0.0573458501974
623,0.0569480907648
624,0.0565503313321
625,0.0561525718995
626,0.0557548124669
627,0.0553890671628
628,0.0552225590133
629,0.0550560508638
630,0.0548895427143
631,0.0547230345648
632,0.0545565264153
633,0.0543900182657
634,0.0542235101162
635,0.0540570019667
636,0.0539682539683
637,0.0539682539683
638,0.0539682539683
639,0.0539682539683
640,0.0539682539683
641,0.0539682539683
642,0.0539682539683
643,0.0534608787676
644,0.0520530912391
645,0.0506453037105
646,0.049237516182
647,0.0478297286534
648,0.0464219411249
649,0.0460173131737
650,0.0476713103612
651,0.0493253075486
652,0.0509793047361
653,0.0526333019236
654,0.0539235603423
655,0.0536918591763
656,0.0534601580102
657,0.0532284568441
658,0.0529967556781
659,0.052765054512
660,0.052533353346
661,0.0523016521799
662,0.0520699510138
663,0.052060500319
664,0.0520587011336
665,0.0520569019483
666,0.052055102763
667,0.0520533035776
668,0.0520515043923
669,0.0520497052069
670,0.0520479060216
671,0.0520461068362
672,0.0519860031911
673,0.051856788971
674,0.0517275747508
675,0.0515983605307
676,0.0514691463106
677,0.0513399320905
678,0.0512107178703
679,0.0510815036502
680,0.0509522894301
681,0.05082307521
682,0.0506938609898
683,0.0505804249547
684,0.0504694481771
685,0.0503584713994
686,0.0502474946218
687,0.0501365178442
688,0.0500255410665
689,0.0499145642889
690,0.0498035875112
691,0.0496926107336
692,0.0495816339559
693,0.0494687642973
694,0.0493470579371
695,0.0492253515768
696,0.0491036452166
697,0.0489819388564
698,0.0488602324961
699,0.0487385261359
700,0.0486168197756
701,0.0484951134154
702,0.0483734070552
703,0.0482517006949
704,0.0484519762323
705,0.0488035843791
706,0.0491551925259
707,0.0495068006727
708,0.0498584088195
709,0.0502100169662
710,0.050561625113
711,0.0509455782313
712,0.0513922902494
713,0.0518390022676
714,0.0522857142857
715,0.0527324263039
716,0.053179138322
717,0.0536258503401
718,0.0539682539683
719,0.0539682539683
720,0.0539682539683
721,0.0539682539683
722,0.0539682539683
723,0.0539682539683
724,0.0540793650794
725,0.0548611111111
726,0.0556428571429
727,0.0564246031746
728,0.0571428571429
729,0.0571428571429
730,0.0571428571429
731,0.0571428571429
732,0.0571428571429
733,0.0571428571429
734,0.0571428571429
735,0.0571428571429
736,0.0571428571429
737,0.0571428571429
738,0.0571428571429
739,0.0571428571429
740,0.0571428571429
741,0.0571428571429
742,0.0571428571429
743,0.0571428571429
744,0.0571428571429
745,0.0569047619048
746,0.0566204906205
747,0.0563362193362
748,0.0560519480519
749,0.0557676767677
750,0.0554834054834
751,0.0551991341991
752,0.0549148629149
753,0.0546305916306
754,0.0543463203463
755,0.054062049062
756,0.0539682539683
757,0.0539682539683
758,0.0539682539683
759,0.0539682539683
760,0.0539682539683
761,0.0542195419068
762,0.0546426506581
763,0.0550657594094
764,0.0554888681607
765,0.055911976912
766,0.0563350856633
767,0.0567581944145
768,0.0571813031658
769,0.0575534564265
770,0.0577214349126
771,0.0578894133988
772,0.0580573918849
773,0.0582253703711
774,0.0583933488573
775,0.0585613273434
776,0.0587293058296
777,0.0588972843157
778,0.0590652628019
779,0.0592332412881
780,0.0593189389317
781,0.0593514270784
782,0.0593839152252
783,0.059416403372
784,0.0594488915188
785,0.0594813796655
786,0.0595138678123
787,0.0595463559591
788,0.0595788441058
789,0.0596113322526
790,0.0596942090236
791,0.059828222629
792,0.0599622362345
793,0.0600962498399
794,0.0602302634454
795,0.0603642770508
796,0.0604982906562
797,0.0605103868084
798,0.0604830636462
799,0.0604557404839
