Wavelength (nm),Absorbance
360,0.13703563858
361,0.137318511526
362,0.137601384473
363,0.137884257419
364,0.138335411293
365,0.139082561446
366,0.1398297116
367,0.140576861753
368,0.141324011907
369,0.142071162061
370,0.142818312214
371,0.143565462368
372,0.144312612521
373,0.145355985328
374,0.147245793217
375,0.149135601106
376,0.151025408994
377,0.152915216883
378,0.154805024772
379,0.156694832661
380,0.15858464055
381,0.160474448439
382,0.162049787042
383,0.16332515317
384,0.164600519299
385,0.165875885428
386,0.167151251556
387,0.168426617685
388,0.169701983814
389,0.170977349942
390,0.172418592437
391,0.174864297243
392,0.17731000205
393,0.179755706856
394,0.182201411662
395,0.184647116469
396,0.187092821275
397,0.189538526081
398,0.191984230887
399,0.194225962796
400,0.196163630636
401,0.198101298477
402,0.200038966317
403,0.201976634157
404,0.203914301998
405,0.205851969838
406,0.207789637678
407,0.210079354719
408,0.212771805086
409,0.215464255454
410,0.218156705821
411,0.220849156188
412,0.223541606555
413,0.226234056922
414,0.22892650729
415,0.231721358687
416,0.234772683051
417,0.237824007416
418,0.240875331781
419,0.243926656146
420,0.246977980511
421,0.250029304876
422,0.253341310907
423,0.257127506635
424,0.260913702364
425,0.264699898092
426,0.26848609382
427,0.272272289549
428,0.276058485277
429,0.279902494151
430,0.283836564171
431,0.287770634191
432,0.291704704211
433,0.295638774231
434,0.299572844251
435,0.303506914271
436,0.307589197304
437,0.313073875613
438,0.318558553922
439,0.32404323223
440,0.329527910539
441,0.334181544474
442,0.338667433066
443,0.343153321659
444,0.347639210252
445,0.352125098845
446,0.356644726592
447,0.362598268401
448,0.368551810211
449,0.37450535202
450,0.380458893829
451,0.386412435638
452,0.392170859594
453,0.397835683648
454,0.403500507703
455,0.409165331758
456,0.414770483193
457,0.420250820641
458,0.425731158088
459,0.431211495536
460,0.436691832983
461,0.44226195704
462,0.448634582653
463,0.455007208265
464,0.461379833878
465,0.467752459491
466,0.474809691585
467,0.482279590482
468,0.489749489379
469,0.497219388276
470,0.504570627383
471,0.511234452444
472,0.517898277505
473,0.524562102567
474,0.531225927628
475,0.539027854371
476,0.547389076797
477,0.555750299224
478,0.56411152165
479,0.570627447576
480,0.57702539488
481,0.583423342184
482,0.589967929602
483,0.597066443696
484,0.604164957789
485,0.611263471882
486,0.618757975899
487,0.626683665237
488,0.634609354575
489,0.642535043913
490,0.650710450089
491,0.658969925357
492,0.667229400624
493,0.675488875891
494,0.683139233193
495,0.690453584559
496,0.697767935924
497,0.70508228729
498,0.712474323063
499,0.720251699638
500,0.728029076214
501,0.735806452789
502,0.743583829365
503,0.751236213235
504,0.758832720588
505,0.766429227941
506,0.773523560325
507,0.779614453608
508,0.785705346891
509,0.791796240174
510,0.797887133457
511,0.804999703202
512,0.812485428156
513,0.81997115311
514,0.827456878064
515,0.833758031929
516,0.839670989004
517,0.845583946078
518,0.851496903153
519,0.857392825312
520,0.863193794563
521,0.868994763815
522,0.874795733066
523,0.880596702317
524,0.886397671569
525,0.891546814589
526,0.89639003383
527,0.901233253072
528,0.906076472314
529,0.910919691556
530,0.916031800432
531,0.921576821618
532,0.927121842805
533,0.932666863991
534,0.938211885178
535,0.94279384312
536,0.947357193056
537,0.951920542993
538,0.95648389293
539,0.961047242867
540,0.965610592803
541,0.970105944104
542,0.973055871862
543,0.97600579962
544,0.978955727379
545,0.981905655137
546,0.984855582895
547,0.987805510653
548,0.990755438411
549,0.993705366169
550,0.995342620482
551,0.9957672927
552,0.996191964918
553,0.996616637137
554,0.997041309355
555,0.997465981573
556,0.997890653792
557,0.99831532601
558,0.998739998228
559,0.997803495311
560,0.99674658994
561,0.995689684569
562,0.994632779199
563,0.993575873828
564,0.992518968457
565,0.991462063086
566,0.989501044755
567,0.98726757461
568,0.985034104464
569,0.982800634319
570,0.980567164173
571,0.978333694027
572,0.976100223882
573,0.973866753736
574,0.971694194847
575,0.970859145616
576,0.970024096386
577,0.969189047155
578,0.968353997924
579,0.967518948694
580,0.966683899463
581,0.965848850233
582,0.964552521008
583,0.962816176471
584,0.961079831933
585,0.959343487395
586,0.957607142857
587,0.955601102941
588,0.953237745098
589,0.950874387255
590,0.948511029412
591,0.946147671569
592,0.943784313725
593,0.941420955882
594,0.936566176471
595,0.931423925339
596,0.926281674208
597,0.921139423077
598,0.915676470588
599,0.908731092437
600,0.901785714286
601,0.894619117647
602,0.887326470588
603,0.880033823529
604,0.872705882353
605,0.860551470588
606,0.848397058824
607,0.840022977941
608,0.832426470588
609,0.824829963235
610,0.813014705882
611,0.800860294118
612,0.789463235294
613,0.778321691176
614,0.765448529412
615,0.751268382353
616,0.738477941176
617,0.727842830882
618,0.717207720588
619,0.698413602941
620,0.682647058824
621,0.670492647059
622,0.657983088235
623,0.645220955882
624,0.632458823529
625,0.619696691176
626,0.629634191176
627,0.612921875
628,0.596492647059
629,0.585351102941
630,0.574209558824
631,0.568162640056
632,0.562857142857
633,0.557551645658
634,0.552246148459
635,0.546940651261
636,0.541802283413
637,0.536686268257
638,0.531570253101
639,0.526454237945
640,0.521338222789
641,0.517269979508
642,0.513743410889
643,0.51021684227
644,0.50669027365
645,0.501646533613
646,0.493832983193
647,0.486019432773
648,0.47648312097
649,0.466550727867
650,0.458776394607
651,0.451760639742
652,0.444744884877
653,0.437729130011
654,0.429249884596
655,0.415551395257
656,0.402769954643
657,0.393055385258
658,0.383340815873
659,0.373600850757
660,0.35982378368
661,0.346046716603
662,0.331592889823
663,0.316101802638
664,0.30113693394
665,0.286639570091
666,0.271934655112
667,0.257085291929
668,0.244709908852
669,0.234803522037
670,0.224897135222
671,0.218465505895
672,0.213467728394
673,0.208469950893
674,0.203472173392
675,0.198474395891
676,0.19137745098
677,0.183949754902
678,0.176522058824
679,0.167308823529
680,0.156890756303
681,0.146802389706
682,0.142244485294
683,0.137686580882
684,0.133128676471
685,0.128570772059
686,0.124012867647
687,0.11974877451
688,0.11637254902
689,0.112996323529
690,0.109620098039
691,0.106243872549
692,0.102867647059
693,0.0994914215686
694,0.0963566176471
695,0.0933180147059
696,0.0902794117647
697,0.0872408088235
698,0.0842022058824
699,0.0811636029412
