wavelength,absor
360,0.485802105789
361,0.49105374667
362,0.494933486464
363,0.498175472399
364,0.501417458335
365,0.50465944427
366,0.507901430205
367,0.51114341614
368,0.514385402076
369,0.51785573112
370,0.52147419602
371,0.52509266092
372,0.52871112582
373,0.532494934387
374,0.536352007631
375,0.540209080874
376,0.544066154118
377,0.547923227361
378,0.551780300604
379,0.555615250955
380,0.559439538774
381,0.563263826592
382,0.567088114411
383,0.57091240223
384,0.574736690048
385,0.578560977867
386,0.582459543056
387,0.586380883819
388,0.590302224582
389,0.594223565345
390,0.598144906108
391,0.60165354035
392,0.604567007839
393,0.607480475328
394,0.610393942817
395,0.613307410305
396,0.616488520886
397,0.622233559173
398,0.62797859746
399,0.633723635747
400,0.639468674034
401,0.645213712322
402,0.649723435411
403,0.653320614869
404,0.656917794327
405,0.660514973785
406,0.664112153242
407,0.6677093327
408,0.671306512158
409,0.676100577201
410,0.681256406712
411,0.686412236223
412,0.690040723254
413,0.693147472543
414,0.696254221833
415,0.699360971122
416,0.702467720411
417,0.705712990602
418,0.709676130494
419,0.713639270385
420,0.717602410276
421,0.721565550168
422,0.725528690059
423,0.72949182995
424,0.732226937108
425,0.733722193616
426,0.735217450125
427,0.736712706633
428,0.738207963142
429,0.73970321965
430,0.741198476159
431,0.742693732667
432,0.743938996196
433,0.745180945386
434,0.746422894576
435,0.747664843766
436,0.748906792957
437,0.750148742147
438,0.751390691337
439,0.752632640527
440,0.753874589717
441,0.755116538907
442,0.756358488097
443,0.756391838202
444,0.755982025971
445,0.755572213739
446,0.755162401508
447,0.754752589276
448,0.754342777044
449,0.753932964813
450,0.753523152581
451,0.753077977931
452,0.75256725067
453,0.75205652341
454,0.751545796149
455,0.751035068888
456,0.750524341628
457,0.750013614367
458,0.749502887106
459,0.748131882536
460,0.746032499755
461,0.743933116975
462,0.741833734194
463,0.739734351414
464,0.737634968633
465,0.735535585852
466,0.733436203072
467,0.731371976828
468,0.729351346623
469,0.727330716417
470,0.725310086212
471,0.723289456006
472,0.721268825801
473,0.719294026149
474,0.717663360173
475,0.716032694198
476,0.714402028222
477,0.712771362246
478,0.71114069627
479,0.709510030294
480,0.707879364319
481,0.706248698343
482,0.704130674633
483,0.701830618905
484,0.699530563177
485,0.697230507449
486,0.694930451721
487,0.692630395993
488,0.690330340265
489,0.688030284537
490,0.685849217529
491,0.685513090714
492,0.685176963898
493,0.684840837082
494,0.684504710266
495,0.684168583451
496,0.683832456635
497,0.683496329819
498,0.683111205696
499,0.682683984206
500,0.682256762717
501,0.681829541227
502,0.681402319737
503,0.680975098248
504,0.680547876758
505,0.680120655269
506,0.679767052089
507,0.679880566046
508,0.679994080003
509,0.68010759396
510,0.680221107916
511,0.680334621873
512,0.68044813583
513,0.680634099926
514,0.682674229501
515,0.684714359075
516,0.68675448865
517,0.688794618225
518,0.690834747799
519,0.692874877374
520,0.694915006948
521,0.696955136523
522,0.699089624338
523,0.701503321489
524,0.703917018641
525,0.706330715793
526,0.708744412945
527,0.711158110096
528,0.713571807248
529,0.7159855044
530,0.718399201552
531,0.721215936301
532,0.724039944592
533,0.726863952883
534,0.729687961174
535,0.732511969465
536,0.735335977756
537,0.740451883765
538,0.74562467118
539,0.750797458595
540,0.755970246009
541,0.761143033424
542,0.766295280539
543,0.770084774412
544,0.773874268284
545,0.777663762157
546,0.78145325603
547,0.785242749903
548,0.789032243775
549,0.792953268076
550,0.802308946621
551,0.811398147527
552,0.814456092883
553,0.817514038239
554,0.820571983595
555,0.82362992895
556,0.826687874306
557,0.83294830532
558,0.839274606304
559,0.845600907289
560,0.851927208273
561,0.857814784442
562,0.862378758724
563,0.866942733005
564,0.871506707287
565,0.876070681569
566,0.88063465585
567,0.885354063935
568,0.890131088691
569,0.894908113447
570,0.899685138204
571,0.904326727767
572,0.907868426891
573,0.911410126014
574,0.914951825138
575,0.918493524262
576,0.922035223385
577,0.926548112623
578,0.931311936095
579,0.936075759567
580,0.940839583038
581,0.94560340651
582,0.950367229982
583,0.954227283489
584,0.957050775104
585,0.959874266719
586,0.962697758333
587,0.965521249948
588,0.968344741563
589,0.971168233178
590,0.973791710969
591,0.975693443147
592,0.977595175326
593,0.979496907504
594,0.981398639683
595,0.983300371861
596,0.98520210404
597,0.987103836219
598,0.987988855149
599,0.988552263556
600,0.989115671963
601,0.98967908037
602,0.990242488777
603,0.990805897184
604,0.991369305592
605,0.991932713999
606,0.992496122406
607,0.991823261716
608,0.990929634561
609,0.990036007406
610,0.989142380251
611,0.988248753096
612,0.987355125941
613,0.986461498786
614,0.984134546958
615,0.981736577633
616,0.979338608307
617,0.976940638981
618,0.974542669656
619,0.97214470033
620,0.969746731005
621,0.967348761679
622,0.963137074254
623,0.958732094309
624,0.954327114364
625,0.949922134419
626,0.945517154474
627,0.940332453915
628,0.933898580201
629,0.927464706488
630,0.921030832774
631,0.917683322934
632,0.917418501032
633,0.91715367913
634,0.916888857229
635,0.914859527642
636,0.897827178838
637,0.885326386452
638,0.87837718814
639,0.871427989828
640,0.864478791515
641,0.857214904897
642,0.849856930213
643,0.84249895553
644,0.834983765593
645,0.825883624946
646,0.816783484299
647,0.807683343652
648,0.795130133975
649,0.782342030857
650,0.770452898149
651,0.763140752667
652,0.755828607185
653,0.748516461703
654,0.741204316222
655,0.732190081769
656,0.722317402444
657,0.712433870069
658,0.702509919898
659,0.692585969727
660,0.681958305421
661,0.670927831909
662,0.66051383399
663,0.650922999485
664,0.641332164979
665,0.629454705641
666,0.617360289295
667,0.607043552304
668,0.596726815314
669,0.582865841586
670,0.568146083743
671,0.558481722428
672,0.551097213917
673,0.543712705406
674,0.544035843072
675,0.551268203941
676,0.504168509682
677,0.492894716902
678,0.48164022948
679,0.470447543123
680,0.459225393923
681,0.447059430491
682,0.434893467059
683,0.422860926704
684,0.410857176118
685,0.399302178282
686,0.388028385502
687,0.376738087074
688,0.365423741083
689,0.354854725935
690,0.34433737469
691,0.333820023446
692,0.323302672202
693,0.312785320958
694,0.302267969713
695,0.333728736273
696,0.295308907254
697,0.269312941035
698,0.258512583421
699,0.249380769966
700,0.244891826191
701,0.240402882415
702,0.23591393864
703,0.231424994864
704,0.226936051089
705,0.222447107313
706,0.217958163538
707,0.213469219762
708,0.189788670184
709,0.172001052833
710,0.157872172913
711,0.146919825379
712,0.148040367938
713,0.149160910496
714,0.150281453055
715,0.149600594337
716,0.126436599963
717,0.114033138441
718,0.108733591294
719,0.103434044146
720,0.0981344969984
721,0.0928349498508
722,0.0877666189214
723,0.0827494290789
724,0.0777322392364
725,0.0727150493939
726,0.0677120310592
727,0.0630950218296
728,0.0584780126
729,0.0538610033704
730,0.0492439941408
731,0.0462321553659
732,0.0446838654535
733,0.043135575541
734,0.0415872856286
735,0.0400389957162
736,0.0384907058037
737,0.0369424158913
738,0.0351204433921
739,0.033207894514
740,0.0312953456358
741,0.0293827967577
742,0.0274702478795
743,0.0255576990013
744,0.0236451501232
745,0.021732601245
746,0.0201432510896
747,0.0188364054177
748,0.0175295597458
749,0.0162227140739
750,0.014915868402
751,0.0136090227301
752,0.0123021770582
753,0.0117686711647
754,0.0116809049769
755,0.0115931387891
756,0.0115053726013
757,0.0114176064135
758,0.0113298402257
759,0.0112420740378
760,0.01115430785
761,0.0110424424961
762,0.0106508539702
763,0.0102592654442
764,0.00986767691828
765,0.00947608839233
766,0.00908449986639
767,0.00869291134045
768,0.00830132281451
769,0.00790973428857
770,0.00780838092867
771,0.00828346210806
772,0.00875854328744
773,0.00923362446683
774,0.00970870564622
775,0.0101837868256
776,0.010658868005
777,0.0111174269666
778,0.0115081086092
779,0.0118987902518
780,0.0122894718944
781,0.012680153537
782,0.0130708351796
783,0.0134615168222
784,0.0138521984648
785,0.0142428801074
786,0.0144064678053
787,0.0143312220284
788,0.0142559762516
789,0.0141807304747
790,0.0141054846978
791,0.014030238921
792,0.0139549931441
793,0.0140576671691
794,0.0144932765528
795,0.0149288859366
796,0.0153644953203
797,0.015800104704
798,0.0162357140877
799,0.0166713234715
