Wavelength (nm),Absorbance
360,0.25429825058
361,0.258215927173
362,0.262133603766
363,0.266051280359
364,0.270727396368
365,0.275602084734
366,0.2804767731
367,0.285610181853
368,0.290861707727
369,0.2961132336
370,0.302296511503
371,0.308574706991
372,0.314907829312
373,0.321339709795
374,0.327771981095
375,0.334318307849
376,0.340864634604
377,0.34785258668
378,0.355078932373
379,0.362755056278
380,0.370896306278
381,0.378842499981
382,0.386615690771
383,0.394826714212
384,0.403147506611
385,0.411327645798
386,0.419752403359
387,0.430045037686
388,0.439475630009
389,0.44783634888
390,0.456471167792
391,0.465247866078
392,0.475255848604
393,0.485951655009
394,0.49833539561
395,0.507023916019
396,0.515756132596
397,0.525352140371
398,0.536163519737
399,0.547413900256
400,0.55838357542
401,0.568461424966
402,0.578583646746
403,0.590986221934
404,0.600510992724
405,0.610011434298
406,0.623054385426
407,0.63360631508
408,0.643860802382
409,0.654688335277
410,0.664285498001
411,0.67441555069
412,0.685910534242
413,0.696907871559
414,0.707566054514
415,0.717711716521
416,0.727212289509
417,0.7365666114
418,0.746061555998
419,0.7551528925
420,0.763742605418
421,0.775729405524
422,0.785224609658
423,0.793531692306
424,0.802861741342
425,0.811650113963
426,0.819353678835
427,0.827687086392
428,0.836717476373
429,0.844537088134
430,0.85174845177
431,0.85902109258
432,0.866353128025
433,0.873804188722
434,0.881456375777
435,0.888442320204
436,0.894221113778
437,0.899999907353
438,0.90603679047
439,0.912123500996
440,0.918447508804
441,0.925148800076
442,0.93154939981
443,0.935941430534
444,0.940333461257
445,0.944725491981
446,0.949653577695
447,0.954793312735
448,0.959933047775
449,0.96366212907
450,0.967147954429
451,0.970633779788
452,0.974119605146
453,0.977201110039
454,0.980252001731
455,0.983302893423
456,0.986353785115
457,0.988677148272
458,0.990543095423
459,0.992409042574
460,0.994274989725
461,0.995685835915
462,0.99602633722
463,0.996366838525
464,0.99670733983
465,0.997047841135
466,0.995795591925
467,0.994515307018
468,0.993235022112
469,0.991954737205
470,0.989411976798
471,0.986239109971
472,0.983066243145
473,0.979893376319
474,0.97581974448
475,0.971435779052
476,0.967051813623
477,0.96177446173
478,0.9552058997
479,0.948596585452
480,0.941689416334
481,0.934782247216
482,0.927891602727
483,0.921002852727
484,0.913589919377
485,0.906140840429
486,0.897824136258
487,0.88963235497
488,0.881709336326
489,0.873355798001
490,0.864547765462
491,0.85569596077
492,0.847010161416
493,0.838718529015
494,0.829783485681
495,0.820427820846
496,0.810122088716
497,0.801024236814
498,0.79290409002
499,0.783461879827
500,0.772764197922
501,0.762010455034
502,0.752405425678
503,0.744222029431
504,0.735526154958
505,0.725690184563
506,0.715854214169
507,0.706252629302
508,0.697343131292
509,0.686589479541
510,0.675228925571
511,0.667010104677
512,0.658176550186
513,0.647876385712
514,0.637725786133
515,0.627534777267
516,0.616822606214
517,0.605742584473
518,0.594739646084
519,0.585202905566
520,0.575265635673
521,0.564915362291
522,0.5547903187
523,0.544903769979
524,0.535479119485
525,0.526016318564
526,0.5164518688
527,0.506460709261
528,0.496593590056
529,0.486806744306
530,0.476970087233
531,0.467443736766
532,0.458276590384
533,0.449293643913
534,0.440017988212
535,0.43008862966
536,0.420723384305
537,0.411514039224
538,0.402670971188
539,0.393521718857
540,0.384005599466
541,0.374867882125
542,0.365223512235
543,0.355026349406
544,0.345297278399
545,0.335944908797
546,0.327233912557
547,0.317349852122
548,0.30726500787
549,0.297428350797
550,0.287088276576
551,0.276596562539
552,0.266512211035
553,0.256647142553
554,0.246712847985
555,0.236567185978
556,0.226036992425
557,0.215449382764
558,0.205200719112
559,0.195265183561
560,0.185535512586
561,0.175904858803
562,0.166322549951
563,0.156794897813
564,0.147549120226
565,0.138559382661
566,0.130127620115
567,0.121940804587
568,0.114102630646
569,0.105985229511
570,0.0977197533035
571,0.0909762986848
572,0.0842328440662
573,0.0778405464977
574,0.0714977580362
575,0.0661257086411
576,0.0615222359028
577,0.0569187631645
578,0.0527423888024
579,0.0490457289834
580,0.0453490691644
581,0.0416524093454
582,0.0383973798943
583,0.0356597494028
584,0.0329221189112
585,0.0301844884197
586,0.0275573459874
587,0.0255824384189
588,0.0236075308504
589,0.0216326232819
590,0.0196577157134
591,0.0182362169738
592,0.0169286919629
593,0.015621166952
594,0.0143136419412
595,0.0132089737344
596,0.0122964302372
597,0.01138388674
598,0.0104713432429
599,0.00965585814644
600,0.00923363652834
601,0.00881141491025
602,0.00838919329215
603,0.00796697167406
604,0.00754475005596
605,0.00712252843787
606,0.00670030681977
607,0.00627808520168
608,0.00604109865174
609,0.00594575828636
610,0.00585041792098
611,0.00575507755561
612,0.00552639102985
613,0.00489986862881
614,0.00427334622776
615,0.00364682382672
616,0.00302030142567
617,0.0029161267733
618,0.00284802651231
619,0.00277992625133
620,0.00271182599035
621,0.00268593169671
622,0.00268593169671
623,0.00268593169671
624,0.00268593169671
625,0.00268593169671
626,0.00268593169671
627,0.00268593169671
628,0.00268593169671
629,0.00268593169671
630,0.00268593169671
631,0.00268593169671
632,0.00268593169671
633,0.00268593169671
634,0.00241100392373
635,0.00200240235783
636,0.00159380079193
637,0.00118519922603
638,0.000907959776719
639,0.000867099620129
640,0.00082623946354
641,0.00078537930695
642,0.000746217954524
643,0.000746217954524
644,0.000746217954524
645,0.000746217954524
646,0.000746217954524
647,0.000746217954524
648,0.000746217954524
649,0.000746217954524
650,0.000746217954524
651,0.000746217954524
652,0.000746217954524
653,0.000746217954524
654,0.000746217954524
655,0.000748796621894
656,0.000776036726287
657,0.00080327683068
658,0.000830516935074
659,0.000857757039467
660,0.00088499714386
661,0.000912237248253
662,0.000939477352646
663,0.00096671745704
664,0.00115805382719
665,0.00153941528869
666,0.0019207767502
667,0.0023021382117
668,0.00262916489172
669,0.00264278494391
670,0.00265640499611
671,0.00267002504831
672,0.0026836451005
673,0.00268593169671
674,0.00268593169671
675,0.00268593169671
676,0.00268593169671
677,0.00268593169671
678,0.00268593169671
679,0.00268593169671
680,0.00268593169671
681,0.00278167296976
682,0.00325837479664
683,0.00373507662353
684,0.00421177845041
685,0.00468848027729
686,0.00498433427989
687,0.00525673532382
688,0.00552913636775
689,0.00580153741169
690,0.00591103040759
691,0.0058974103554
692,0.0058837903032
693,0.005870170251
694,0.00594993052431
695,0.00630405188142
696,0.00665817323853
697,0.00701229459564
698,0.00736641595276
699,0.00749050473939
700,0.00759946515697
701,0.00770842557454
702,0.00781738599211
703,0.00785850167588
704,0.00785850167588
705,0.00785850167588
706,0.00785850167588
707,0.00799649435061
708,0.0084459560731
709,0.00889541779558
710,0.00934487951807
711,0.00979434124056
712,0.00994674459972
713,0.0100965651739
714,0.0102463857481
715,0.0103962063222
716,0.0104631939802
717,0.0104904340846
718,0.010517674189
719,0.0105449142934
720,0.0109044226695
721,0.0118543586413
722,0.012804294613
723,0.0137542305848
724,0.0147041665566
725,0.015017146592
726,0.0151631053008
727,0.0153090640095
728,0.0154550227182
729,0.0155263872322
730,0.0155372807018
731,0.0157633562282
732,0.0166558880405
733,0.0175484198528
734,0.0184409516651
735,0.0193334834774
736,0.0202260152897
737,0.0210526315789
738,0.0210526315789
739,0.0210526315789
740,0.0210526315789
741,0.0210526315789
742,0.0210516701138
743,0.021048277902
744,0.0210448856903
745,0.0210414934786
746,0.0210381012669
747,0.0210347090552
748,0.0210313168435
749,0.0210279246318
750,0.0210578722022
751,0.0212757930373
752,0.0214937138725
753,0.0217116347076
754,0.0219295555427
755,0.0220906121067
756,0.0222404326808
757,0.022390253255
758,0.0225400738292
759,0.0226615989684
760,0.0227569393338
761,0.0228522796992
762,0.0229476200645
763,0.0230207615243
764,0.0230071414721
765,0.0229935214199
766,0.0229799013677
767,0.0229662813155
768,0.0230494286223
769,0.0231447689877
770,0.0232401093531
771,0.0233354497185
772,0.0234619777813
773,0.0236117983554
774,0.0237616189296
775,0.0239114395037
776,0.0240822476509
777,0.0243137885382
778,0.0245453294256
779,0.0247768703129
