Wavelength (nm),Absorbance
360,0.104996058147
361,0.106405733549
362,0.107972474235
363,0.109663630716
364,0.111354787197
365,0.113045943678
366,0.114605612814
367,0.115754237215
368,0.116902861617
369,0.118051486019
370,0.119200110421
371,0.120554894062
372,0.121925979317
373,0.123297064571
374,0.124668149825
375,0.126180726058
376,0.1277833522
377,0.129385978341
378,0.130988604483
379,0.132655614676
380,0.134476161653
381,0.13629670863
382,0.138117255607
383,0.139937802584
384,0.142078630997
385,0.144226059227
386,0.146373487456
387,0.148520915686
388,0.150633667336
389,0.152728885365
390,0.154824103395
391,0.156919321424
392,0.159020868879
393,0.161134246978
394,0.163247625077
395,0.165361003177
396,0.167472364946
397,0.16952445281
398,0.171576540675
399,0.173628628539
400,0.175680716403
401,0.178117056713
402,0.18070486663
403,0.183292676547
404,0.185880486465
405,0.188510963431
406,0.191205009755
407,0.19389905608
408,0.196593102404
409,0.199277076934
410,0.201853990809
411,0.204430904685
412,0.207007818561
413,0.209584732436
414,0.212327291025
415,0.215119230404
416,0.217911169783
417,0.220703109162
418,0.223841641472
419,0.227200238627
420,0.230558835781
421,0.233911521546
422,0.237205778942
423,0.240500036338
424,0.243794293734
425,0.24708855113
426,0.251264622437
427,0.255655303142
428,0.260045983846
429,0.263874794293
430,0.266467612466
431,0.26906043064
432,0.271653248813
433,0.277844044581
434,0.284680062279
435,0.290675870481
436,0.293139509163
437,0.295603147845
438,0.298066786526
439,0.302490172543
440,0.311507367297
441,0.318795938918
442,0.321515986461
443,0.324236034004
444,0.326956081547
445,0.329938076429
446,0.341163187399
447,0.346542543181
448,0.351583965549
449,0.356753550727
450,0.362092741718
451,0.367431932709
452,0.373439527004
453,0.379752709341
454,0.386171080845
455,0.392967612037
456,0.399764143229
457,0.408192148292
458,0.416162888269
459,0.422047379436
460,0.427931870602
461,0.43567925932
462,0.444260981808
463,0.451538596639
464,0.458331461471
465,0.465987365109
466,0.474351098662
467,0.482416070013
468,0.490348851972
469,0.497371979503
470,0.50444929115
471,0.512162054307
472,0.519834561573
473,0.527203009812
474,0.53457145805
475,0.54195688813
476,0.549343042436
477,0.556298816356
478,0.563337929745
479,0.572651936536
480,0.580820875584
481,0.587913647069
482,0.595181391718
483,0.603190491571
484,0.611718786064
485,0.621324425162
486,0.629882894079
487,0.638178702223
488,0.651344179756
489,0.66086750988
490,0.669884759559
491,0.679171206005
492,0.688712602434
493,0.700541945172
494,0.709656036025
495,0.718290911237
496,0.728127568309
497,0.736986438482
498,0.745183200948
499,0.76296533639
500,0.766121131462
501,0.769276926535
502,0.773876761533
503,0.788319319403
504,0.794132956963
505,0.799946594522
506,0.806119033655
507,0.813257386139
508,0.819927434492
509,0.82341067162
510,0.826893908747
511,0.830377145874
512,0.833840826904
513,0.837029963783
514,0.840219100662
515,0.84340823754
516,0.846597374419
517,0.849922415473
518,0.853342923373
519,0.856763431272
520,0.860183939172
521,0.864564082028
522,0.869371138512
523,0.874178194995
524,0.879642298908
525,0.88558661688
526,0.891530934852
527,0.899170876163
528,0.907291525834
529,0.915609775554
530,0.924060030488
531,0.931132947167
532,0.937973811119
533,0.944239880277
534,0.95034046892
535,0.95717287113
536,0.964628228273
537,0.971573831189
538,0.977968173295
539,0.983005746224
540,0.987538859013
541,0.992071971802
542,0.996605084591
543,0.99778753281
544,0.997489556334
545,0.997191579859
546,0.996893603384
547,0.994037832168
548,0.990419150046
549,0.986800467924
550,0.983181785802
551,0.979354642778
552,0.975415638176
553,0.971476633573
554,0.967537628971
555,0.963598624369
556,0.959659619766
557,0.954560407345
558,0.947731846132
559,0.94090328492
560,0.933274353051
561,0.921038066813
562,0.90369221112
563,0.894607743174
564,0.890324411374
565,0.886041079574
566,0.881757747774
567,0.877474415975
568,0.875041582349
569,0.873924738069
570,0.872807893789
571,0.871691049508
572,0.87089226855
573,0.870958855472
574,0.871025442394
575,0.876657857373
576,0.882808781153
577,0.888959704933
578,0.895110628712
579,0.901207609801
580,0.907062618607
581,0.912917627413
582,0.918844334663
583,0.924955939426
584,0.93106754419
585,0.939091287707
586,0.943942100511
587,0.945866581457
588,0.947791062404
589,0.949715543351
590,0.951640024297
591,0.953399862729
592,0.951629616373
593,0.949859370016
594,0.948089123659
595,0.946318877303
596,0.940045421834
597,0.9323624918
598,0.924387106946
599,0.916323014542
600,0.90517131378
601,0.89378370994
602,0.884041471042
603,0.873677603648
604,0.861690174506
605,0.851863366742
606,0.808332254694
607,0.785217757213
608,0.751561630841
609,0.730967870893
610,0.693024487855
611,0.664005867185
612,0.612842944943
613,0.590125979482
614,0.542347954789
615,0.516049800707
616,0.483622315686
617,0.439631929976
618,0.406604932512
619,0.375344347314
620,0.350156515787
621,0.306714301756
622,0.290508709651
623,0.258974048449
624,0.233814619191
625,0.210644003047
626,0.179777725564
627,0.169065554511
628,0.139708258383
629,0.128057569294
630,0.118847930491
631,0.111122807135
632,0.103755407402
633,0.0968463740009
634,0.0899373406001
635,0.0830283071993
636,0.0761192737985
637,0.0703382781134
638,0.0667662402136
639,0.0631942023138
640,0.059622164414
641,0.0571256569963
642,0.0553141900542
643,0.053502723112
644,0.0516912561699
645,0.0500728200973
646,0.0489151156606
647,0.0477574112238
648,0.0465997067871
649,0.0454420023504
650,0.0441108449831
651,0.0427760798678
652,0.0414413147526
653,0.0401065496373
654,0.0391335260261
655,0.0383435629987
656,0.0375535999713
657,0.0367636369438
658,0.0362109010203
659,0.0361019406028
660,0.0359929801852
661,0.0358840197676
662,0.0357683761517
663,0.0354551149512
664,0.0351418537507
665,0.0348285925502
666,0.0345153313496
667,0.0339483227407
668,0.0332811971651
669,0.0326140715896
670,0.0319469460141
671,0.0312758744307
672,0.030601681847
673,0.0299274892633
674,0.0292532966795
675,0.0296646350836
676,0.030600313576
677,0.0315359920684
678,0.0310548245614
679,0.0305054824561
680,0.0299561403509
681,0.0294067982456
682,0.0289473684211
683,0.0289473684211
684,0.0289473684211
685,0.0289473684211
686,0.0289473684211
687,0.0293574561404
688,0.0304561403509
689,0.0315548245614
690,0.0326535087719
691,0.0337521929825
692,0.0342105263158
693,0.0342105263158
694,0.0342105263158
695,0.0342105263158
696,0.0342105263158
697,0.0342105263158
698,0.0340493421053
699,0.0332253289474
700,0.0324013157895
701,0.0315773026316
702,0.0307532894737
703,0.0299292763158
704,0.0291052631579
705,0.0289473684211
706,0.0289473684211
707,0.0289473684211
708,0.0289473684211
709,0.0289473684211
710,0.0289473684211
711,0.0289473684211
712,0.0289473684211
713,0.0289473684211
714,0.0289473684211
715,0.0289473684211
716,0.0289473684211
717,0.0289473684211
718,0.0289473684211
719,0.0289473684211
720,0.0289473684211
721,0.0289473684211
722,0.0289473684211
723,0.0289473684211
724,0.0289473684211
725,0.0289473684211
726,0.0289473684211
727,0.0289473684211
728,0.0286818057779
729,0.0282761750333
730,0.0278705442887
731,0.0274649135441
732,0.0270592827995
733,0.0266536520549
734,0.0267143467744
735,0.0268326261751
736,0.0269509055758
737,0.0270691849764
738,0.0271874643771
739,0.0271467073164
740,0.0270922271076
741,0.0270377468989
742,0.0269832666901
743,0.0267804818042
744,0.0264808406559
745,0.0261811995075
746,0.0258815583592
747,0.0259861078043
748,0.0270836450631
749,0.0281811823218
750,0.0292787195806
751,0.0303762568394
752,0.0314737940981
753,0.0318558951355
754,0.0321621883613
755,0.0324684815871
756,0.0327747748129
757,0.0330810680388
758,0.0333873612646
759,0.0336936544904
760,0.0339999477162
761,0.0340928858353
762,0.0341746061484
763,0.0342563264616
764,0.0343380467748
765,0.0334380698902
766,0.0319723751436
767,0.030506680397
768,0.0290409856504
769,0.0289473684211
770,0.0289473684211
771,0.0289473684211
772,0.0289473684211
773,0.0289473684211
774,0.0289473684211
775,0.0289473684211
776,0.0289473684211
777,0.0291289297587
778,0.0303102574228
779,0.0314915850869
