Wavelength (nm),Absorbance
360,0.0815789473684
361,0.0816993421053
362,0.0826881578947
363,0.0836769736842
364,0.0846657894737
365,0.0856546052632
366,0.0866434210526
367,0.0876322368421
368,0.0886210526316
369,0.0894736842105
370,0.0894736842105
371,0.0894736842105
372,0.0894736842105
373,0.091548245614
374,0.0937456140351
375,0.0959429824561
376,0.0981403508772
377,0.1
378,0.1
379,0.1
380,0.1
381,0.1
382,0.1
383,0.101063909774
384,0.102947368421
385,0.104830827068
386,0.106714285714
387,0.108597744361
388,0.110481203008
389,0.112671052632
390,0.114868421053
391,0.117065789474
392,0.119263157895
393,0.121154605263
394,0.121703947368
395,0.122253289474
396,0.122802631579
397,0.123351973684
398,0.124172697368
399,0.125408717105
400,0.126644736842
401,0.127880756579
402,0.129116776316
403,0.130352796053
404,0.131590225564
405,0.133002819549
406,0.134415413534
407,0.135828007519
408,0.137240601504
409,0.138653195489
410,0.140509868421
411,0.142981907895
412,0.145453947368
413,0.147665789474
414,0.148984210526
415,0.150302631579
416,0.151621052632
417,0.152973684211
418,0.154438596491
419,0.155903508772
420,0.157368421053
421,0.158833333333
422,0.160298245614
423,0.161763157895
424,0.163270676692
425,0.165625
426,0.167979323308
427,0.170333646617
428,0.172687969925
429,0.175042293233
430,0.177828947368
431,0.181125
432,0.184421052632
433,0.187542105263
434,0.190178947368
435,0.192815789474
436,0.195452631579
437,0.19841995614
438,0.202265350877
439,0.206110745614
440,0.209956140351
441,0.213801535088
442,0.217381578947
443,0.220677631579
444,0.223973684211
445,0.227269736842
446,0.230334586466
447,0.233159774436
448,0.235984962406
449,0.238810150376
450,0.241635338346
451,0.244460526316
452,0.247710526316
453,0.251006578947
454,0.254302631579
455,0.257598684211
456,0.262894736842
457,0.268388157895
458,0.276993421053
459,0.288529605263
460,0.29350877193
461,0.297903508772
462,0.303447368421
463,0.310039473684
464,0.316631578947
465,0.322861842105
466,0.328355263158
467,0.333848684211
468,0.345333333333
469,0.349728070175
470,0.354122807018
471,0.360144736842
472,0.366736842105
473,0.373328947368
474,0.378118421053
475,0.381414473684
476,0.384710526316
477,0.388782894737
478,0.394276315789
479,0.399769736842
480,0.403157894737
481,0.406453947368
482,0.411605263158
483,0.418197368421
484,0.424789473684
485,0.43046875
486,0.434588815789
487,0.438708881579
488,0.443456140351
489,0.451146929825
490,0.458837719298
491,0.470815789474
492,0.483394736842
493,0.493282894737
494,0.501881578947
495,0.509572368421
496,0.519578947368
497,0.543243421053
498,0.559837719298
499,0.567528508772
500,0.596052631579
501,0.612523026316
502,0.624059210526
503,0.639508223684
504,0.645276315789
505,0.651044407895
506,0.6568125
507,0.675069078947
508,0.680013157895
509,0.684957236842
510,0.68725
511,0.687909210526
512,0.688568421053
513,0.689227631579
514,0.689473684211
515,0.689473684211
516,0.689473684211
517,0.689473684211
518,0.687381578947
519,0.684210526316
520,0.684210526316
521,0.684210526316
522,0.684210526316
523,0.683514802632
524,0.682690789474
525,0.681866776316
526,0.683294736842
527,0.685931578947
528,0.688568421053
529,0.691205263158
530,0.729144736842
531,0.735026315789
532,0.748210526316
533,0.749131578947
534,0.764513157895
535,0.777006578947
536,0.818175438596
537,0.826964912281
538,0.835754385965
539,0.882177631579
540,0.889868421053
541,0.897559210526
542,0.916532894737
543,0.92275
544,0.940631578947
545,0.950592105263
546,0.957184210526
547,0.984365131579
548,0.986013157895
549,0.987661184211
550,0.989309210526
551,0.990957236842
552,0.992605263158
553,0.994253289474
554,0.988914473684
555,0.979407894737
556,0.963736842105
557,0.957144736842
558,0.936421052632
559,0.899526315789
560,0.873157894737
561,0.843131578947
562,0.806013157895
563,0.796125
564,0.764578947368
565,0.749161184211
566,0.737625
567,0.707013157895
568,0.699315789474
569,0.689427631579
570,0.674671052632
571,0.656960526316
572,0.6515
573,0.648203947368
574,0.642447368421
575,0.640021929825
576,0.637824561404
577,0.636842105263
578,0.640572368421
579,0.647335526316
580,0.673657894737
581,0.680909210526
582,0.688160526316
583,0.695411842105
584,0.693912280702
585,0.705997807018
586,0.718083333333
587,0.741190789474
588,0.751078947368
589,0.766671052632
590,0.780032894737
591,0.796657894737
592,0.819447368421
593,0.836046052632
594,0.845934210526
595,0.874059210526
596,0.876036842105
597,0.878014473684
598,0.879992105263
599,0.880276315789
600,0.873684210526
601,0.863131578947
602,0.849947368421
603,0.836763157895
604,0.818210526316
605,0.773421052632
606,0.714296052632
607,0.697703947368
608,0.628631578947
609,0.594082236842
610,0.575394736842
611,0.548346491228
612,0.502
613,0.456638157895
614,0.439013157895
615,0.394594298246
616,0.38250877193
617,0.370423245614
618,0.345947368421
619,0.309526315789
620,0.283157894737
621,0.260485197368
622,0.239559210526
623,0.215453947368
624,0.203368421053
625,0.191282894737
626,0.178263157895
627,0.165078947368
628,0.154144736842
629,0.145904605263
630,0.140493421053
631,0.134831140351
632,0.127140350877
633,0.119449561404
634,0.109855263158
635,0.100855263158
636,0.0942631578947
637,0.0876710526316
638,0.0812664473684
639,0.0771463815789
640,0.0730263157895
641,0.06890625
642,0.0640592105263
643,0.0598207236842
644,0.0573486842105
645,0.0548766447368
646,0.0525811403509
647,0.0520317982456
648,0.0514824561404
649,0.0509331140351
650,0.0503837719298
651,0.05
652,0.05
653,0.05
654,0.05
655,0.05
656,0.05
657,0.05
658,0.05
659,0.05
660,0.0495112781955
661,0.0485695488722
662,0.0476278195489
663,0.0466860902256
664,0.0457443609023
665,0.0448026315789
666,0.0443536184211
667,0.0439416118421
668,0.0435296052632
669,0.0431175986842
670,0.0427055921053
671,0.0422935855263
672,0.0419263157895
673,0.0415967105263
674,0.0412671052632
675,0.0409375
676,0.0406078947368
677,0.0402782894737
678,0.0399486842105
679,0.0396190789474
680,0.0394736842105
681,0.0394736842105
682,0.0394736842105
683,0.0394736842105
684,0.0394736842105
685,0.0394736842105
686,0.0394736842105
687,0.0394736842105
688,0.0394736842105
689,0.0394736842105
690,0.039115497076
691,0.0387492690058
692,0.0383830409357
693,0.0380168128655
694,0.0376505847953
695,0.0372843567251
696,0.036918128655
697,0.0368421052632
698,0.0368421052632
699,0.0368421052632
700,0.0368421052632
701,0.0368421052632
702,0.0368421052632
703,0.0368421052632
704,0.0368421052632
705,0.0368421052632
706,0.0368421052632
707,0.0368421052632
708,0.0368421052632
709,0.0368421052632
710,0.0368421052632
711,0.0368421052632
712,0.0368421052632
713,0.0368421052632
714,0.0368421052632
715,0.0362359022556
716,0.0348233082707
717,0.0334107142857
718,0.0319981203008
719,0.0305855263158
720,0.0291729323308
721,0.0289473684211
722,0.0289473684211
723,0.0289473684211
724,0.0292518796992
725,0.0297227443609
726,0.0301936090226
727,0.0306644736842
728,0.0311353383459
729,0.0315789473684
730,0.0315789473684
731,0.0315789473684
732,0.0315789473684
733,0.0315789473684
734,0.0315789473684
735,0.0315789473684
736,0.0315789473684
737,0.0315789473684
738,0.0315789473684
739,0.0315789473684
740,0.0315789473684
741,0.0315789473684
742,0.0315789473684
743,0.0315789473684
744,0.0315789473684
745,0.0315789473684
746,0.0315789473684
747,0.0315789473684
748,0.0314263157895
749,0.0312065789474
750,0.0309868421053
751,0.0307671052632
752,0.0305473684211
753,0.0303276315789
754,0.0301078947368
755,0.0298881578947
756,0.0296684210526
757,0.0294486842105
758,0.0292289473684
759,0.0290092105263
760,0.0289473684211
761,0.0289473684211
762,0.0289473684211
763,0.0289473684211
764,0.0289473684211
765,0.0289473684211
766,0.0289473684211
767,0.0289473684211
768,0.0289473684211
769,0.0289473684211
770,0.0289473684211
771,0.0289473684211
772,0.0289473684211
773,0.0289473684211
774,0.0289473684211
775,0.0289473684211
776,0.0289473684211
777,0.0289473684211
778,0.0289473684211
779,0.0289473684211
