Wavelength (nm),Absorbance
360,0.320657895
361,0.329315789
362,0.332390977
363,0.335466165
364,0.338541353
365,0.341616541
366,0.344691729
367,0.347766917
368,0.354421053
369,0.393166667
370,0.396754386
371,0.400342105
372,0.4038
373,0.407028947
374,0.410257895
375,0.413486842
376,0.416715789
377,0.421277961
378,0.427332237
379,0.433386513
380,0.439440789
381,0.444741776
382,0.449450658
383,0.454159539
384,0.458868421
385,0.464013158
386,0.469394737
387,0.474776316
388,0.478877193
389,0.482464912
390,0.486052632
391,0.489990132
392,0.494026316
393,0.4980625
394,0.502098684
395,0.503098684
396,0.503636842
397,0.504175
398,0.504713158
399,0.505251316
400,0.505789474
401,0.506327632
402,0.506865789
403,0.507403947
404,0.507705263
405,0.505552632
406,0.5034
407,0.501247368
408,0.499094737
409,0.496480263
410,0.491995614
411,0.487510965
412,0.482789474
413,0.477407895
414,0.472026316
415,0.466940789
416,0.46245614
417,0.457971491
418,0.452421053
419,0.445245614
420,0.438070175
421,0.430894737
422,0.423719298
423,0.41654386
424,0.403210526
425,0.393256579
426,0.390565789
427,0.387875
428,0.376894737
429,0.364184211
430,0.353421053
431,0.346696053
432,0.341852632
433,0.337009211
434,0.332165789
435,0.327322368
436,0.318855263
437,0.3094375
438,0.284230263
439,0.2748125
440,0.269539474
441,0.264830592
442,0.260121711
443,0.255412829
444,0.238223684
445,0.231381579
446,0.215513158
447,0.194646053
448,0.193031579
449,0.191417105
450,0.189802632
451,0.188188158
452,0.184828947
453,0.172720395
454,0.162705263
455,0.160552632
456,0.1584
457,0.156247368
458,0.154094737
459,0.152508459
460,0.15212406
461,0.151739662
462,0.151355263
463,0.150970865
464,0.150586466
465,0.150202068
466,0.150141813
467,0.150440789
468,0.150739766
469,0.151038743
470,0.151337719
471,0.151636696
472,0.151935673
473,0.152234649
474,0.152533626
475,0.153083882
476,0.153756579
477,0.154429276
478,0.155101974
479,0.155774671
480,0.156447368
481,0.157120066
482,0.157792763
483,0.161699561
484,0.166184211
485,0.17066886
486,0.172692982
487,0.174486842
488,0.176280702
489,0.178074561
490,0.179868421
491,0.181722784
492,0.184819049
493,0.187915314
494,0.19101158
495,0.194107845
496,0.19720411
497,0.200300375
498,0.202583092
499,0.204448965
500,0.206314839
501,0.208180712
502,0.210046585
503,0.211912459
504,0.214102016
505,0.216941322
506,0.219780629
507,0.222619935
508,0.225459241
509,0.228298548
510,0.231137854
511,0.23397716
512,0.236816467
513,0.239655773
514,0.242894822
515,0.246137568
516,0.249380314
517,0.252623061
518,0.255865807
519,0.259108553
520,0.262351299
521,0.265594046
522,0.268836792
523,0.272273636
524,0.27578188
525,0.279290125
526,0.282798369
527,0.286306614
528,0.289814858
529,0.293323103
530,0.296831347
531,0.300339592
532,0.303847836
533,0.307356081
534,0.311177524
535,0.315342523
536,0.319507521
537,0.32367252
538,0.327837518
539,0.332002517
540,0.336167516
541,0.340332514
542,0.344497513
543,0.348797093
544,0.353206998
545,0.357616903
546,0.362026808
547,0.366436713
548,0.370846618
549,0.375256523
550,0.379666428
551,0.384077673
552,0.389142689
553,0.394207704
554,0.39927272
555,0.404337735
556,0.409402751
557,0.414467766
558,0.419532782
559,0.424597797
560,0.429672843
561,0.43474865
562,0.439824458
563,0.444900265
564,0.449976072
565,0.45505188
566,0.460127687
567,0.465203495
568,0.470279302
569,0.47535511
570,0.480755501
571,0.486504006
572,0.49225251
573,0.498001015
574,0.50374952
575,0.510096689
576,0.518156173
577,0.526215656
578,0.53427514
579,0.542334623
580,0.550185488
581,0.553978721
582,0.557771954
583,0.561565187
584,0.565358421
585,0.569881004
586,0.576215571
587,0.582550137
588,0.588884704
589,0.595219271
590,0.601553838
591,0.608361685
592,0.615500224
593,0.622638763
594,0.629777302
595,0.636748457
596,0.643445319
597,0.650142181
598,0.656839044
599,0.663535906
600,0.670036629
601,0.676511341
602,0.682986053
603,0.689460765
604,0.695935478
605,0.702066382
606,0.708120659
607,0.714174935
608,0.720274618
609,0.728736275
610,0.737197933
611,0.743885145
612,0.749919552
613,0.755953958
614,0.761988364
615,0.771256353
616,0.781114392
617,0.790972432
618,0.7951737
619,0.798640524
620,0.802107349
621,0.805574174
622,0.809040998
623,0.814504802
624,0.824668284
625,0.834426158
626,0.837953884
627,0.84148161
628,0.845009337
629,0.848537063
630,0.852064789
631,0.856434467
632,0.861780595
633,0.867126723
634,0.872472851
635,0.878018092
636,0.884072368
637,0.890126645
638,0.896180921
639,0.901158991
640,0.904298246
641,0.9074375
642,0.910576754
643,0.913716009
644,0.916855263
645,0.921118421
646,0.9265
647,0.931881579
648,0.937263158
649,0.940606203
650,0.942528195
651,0.944450188
652,0.94637218
653,0.948294173
654,0.950216165
655,0.952138158
656,0.956231579
657,0.961075
658,0.965918421
659,0.970761842
660,0.975605263
661,0.977316837
662,0.978489985
663,0.979663132
664,0.98083628
665,0.982009428
666,0.983182575
667,0.984355723
668,0.986202854
669,0.988565933
670,0.990929012
671,0.993292091
672,0.99565517
673,0.998018249
674,0.999927632
675,0.999479167
676,0.999030702
677,0.998582237
678,0.998133772
679,0.997685307
680,0.996306643
681,0.992687748
682,0.989068854
683,0.985449959
684,0.981831065
685,0.97821217
686,0.974593276
687,0.970021014
688,0.965246899
689,0.960472785
690,0.95569867
691,0.950924556
692,0.946150441
693,0.941376326
694,0.933946776
695,0.924757729
696,0.915568682
697,0.906379635
698,0.895462624
699,0.882242233
700,0.869021843
701,0.859182566
702,0.8504375
703,0.841692434
704,0.832947368
705,0.822650756
706,0.81206632
707,0.801481884
708,0.790897449
709,0.779351277
710,0.76600774
711,0.752664204
712,0.742789474
713,0.732923246
714,0.723168187
715,0.715050733
716,0.70693328
717,0.698815827
718,0.690698373
719,0.68258092
720,0.67101761
721,0.65907844
722,0.649232889
723,0.646031377
724,0.642829865
725,0.639628352
726,0.63642684
727,0.633225328
728,0.630023815
729,0.627616626
730,0.626379051
731,0.625141476
732,0.623903902
733,0.622666327
734,0.621428752
735,0.620191178
736,0.618953603
737,0.61848648
738,0.61860133
739,0.61871618
740,0.618831029
741,0.618945879
742,0.619060729
743,0.619175578
744,0.619290428
745,0.619405278
746,0.619520127
747,0.619634977
748,0.619749827
749,0.619956259
750,0.620270054
751,0.62058385
752,0.620897645
753,0.621211441
754,0.621525236
755,0.621839032
756,0.622152827
757,0.622466623
758,0.622780418
759,0.623094214
760,0.623408009
761,0.622958882
762,0.616904605
763,0.610850329
764,0.604796053
765,0.598130128
766,0.589132744
767,0.58013536
768,0.571137976
769,0.564038289
770,0.55871701
771,0.553395731
772,0.521157895
773,0.479175387
774,0.472913883
775,0.466652378
776,0.460390874
777,0.438240322
778,0.409039474
779,0.374059211
780,0.353600398
781,0.345616833
782,0.337633267
783,0.329649701
784,0.321666136
785,0.30384318
786,0.279342105
787,0.259881579
788,0.234195977
789,0.226803571
790,0.219411166
791,0.21201876
792,0.198063467
793,0.174368421
794,0.16270614
795,0.152839912
796,0.142973684
797,0.13660141
798,0.130566353
799,0.124531297
