Wavelength (nm),Absorbance
400,0.52007654321
401,0.527395160494
402,0.535474271605
403,0.543553382716
404,0.551632493827
405,0.559910444124
406,0.568266484528
407,0.576622524932
408,0.585006040083
409,0.59420490877
410,0.603403777457
411,0.612602646144
412,0.621946150265
413,0.631561616931
414,0.641177083598
415,0.650792550265
416,0.661054920635
417,0.671319365079
418,0.681583809524
419,0.691645145503
420,0.701702645503
421,0.712171481481
422,0.723594814815
423,0.735018148148
424,0.746518571429
425,0.758066071429
426,0.769613571429
427,0.781277857143
428,0.79294952381
429,0.804588875661
430,0.816136375661
431,0.827683875661
432,0.839447407407
433,0.851367407407
434,0.863287407407
435,0.875095701058
436,0.886891534392
437,0.898850780423
438,0.911391613757
439,0.92393244709
440,0.936291609977
441,0.948495419501
442,0.960726727135
443,0.973072441421
444,0.985418155707
445,0.997191931217
446,1.00886359788
447,1.02066058201
448,1.03307724868
449,1.04549391534
450,1.05785
451,1.0701425
452,1.082435
453,1.09422611111
454,1.10589777778
455,1.11753923574
456,1.12897360611
457,1.14040797648
458,1.15179044562
459,1.16276126044
460,1.17373207525
461,1.18465596708
462,1.19514115226
463,1.20562633745
464,1.21606666667
465,1.226
466,1.23593333333
467,1.24586666667
468,1.25527725714
469,1.26449539048
470,1.27371352381
471,1.2825348828
472,1.29071031714
473,1.29888575148
474,1.30706118583
475,1.31503924162
476,1.3229307231
477,1.33082220459
478,1.33871368607
479,1.34588632207
480,1.35271230498
481,1.35953828788
482,1.36636427079
483,1.37285045503
484,1.37861178836
485,1.38437312169
486,1.39013445503
487,1.39589578836
488,1.40112519227
489,1.40507476165
490,1.40902433103
491,1.41297390041
492,1.41692346979
493,1.42087303916
494,1.42482260854
495,1.42673755739
496,1.4284943618
497,1.43025116621
498,1.43200797062
499,1.43376477502
500,1.43552157943
501,1.43727838384
502,1.43805656566
503,1.43805656566
504,1.43805656566
505,1.43805656566
506,1.43805656566
507,1.43805656566
508,1.43805656566
509,1.43787617823
510,1.436907473
511,1.43593876776
512,1.43497006253
513,1.4340013573
514,1.43303265206
515,1.43206394683
516,1.43109524159
517,1.42913585727
518,1.42695216581
519,1.42476847435
520,1.42258478289
521,1.42040109143
522,1.41821739997
523,1.41603370851
524,1.41304283277
525,1.4090434119
526,1.40504399102
527,1.40104457015
528,1.39704514927
529,1.3930457284
530,1.38904630752
531,1.38333940791
532,1.377044355
533,1.37074930209
534,1.36445424918
535,1.35815919627
536,1.35140526682
537,1.34391269539
538,1.33642012396
539,1.32892755253
540,1.32112613757
541,1.31278213757
542,1.30443813757
543,1.29609119153
544,1.28750879153
545,1.27892639153
546,1.27034399153
547,1.26201505339
548,1.25381553824
549,1.24561602309
550,1.23741650794
551,1.229571699
552,1.2217354027
553,1.21389910641
554,1.20606281011
555,1.19946383704
556,1.19292166366
557,1.18637949028
558,1.1798373169
559,1.1734499946
560,1.16716564086
561,1.16088128712
562,1.15459693338
563,1.14831257964
564,1.14234494079
565,1.13640859158
566,1.13047224238
567,1.12453589317
568,1.11859954397
569,1.11217158352
570,1.10567944067
571,1.09918729781
572,1.09269515495
573,1.0860064903
574,1.07850130511
575,1.07099611993
576,1.06349093474
577,1.05588824114
578,1.04782117043
579,1.03975409973
580,1.03168702902
581,1.02320660753
582,1.014292718
583,1.00537882848
584,0.9964978813
585,0.987823148602
586,0.979148415903
587,0.970473683205
588,0.961829937213
589,0.953194559436
590,0.944559181658
591,0.936183421517
592,0.928142151675
593,0.920100881834
594,0.912059611993
595,0.904868841858
596,0.898869423868
597,0.892870005879
598,0.886870587889
599,0.8808711699
600,0.875047581636
601,0.872191999145
602,0.869336416653
603,0.866480834162
604,0.86362525167
605,0.860769669179
606,0.857914086687
607,0.85629432332
608,0.856918235166
609,0.857542147011
610,0.858166058857
611,0.858789970703
612,0.859413882548
613,0.860037794394
614,0.86066170624
615,0.863402789803
616,0.866177555643
617,0.868952321483
618,0.871727087323
619,0.874501853164
620,0.877276619004
621,0.880051384844
622,0.883299582841
623,0.886846029122
624,0.890392475403
625,0.893938921684
626,0.897485367965
627,0.901031814246
628,0.904578260527
629,0.908068924745
630,0.911385508767
631,0.914702092789
632,0.918018676811
633,0.921335260833
634,0.924651844855
635,0.927968428878
636,0.9312850129
637,0.93453002405
638,0.937764514408
639,0.940999004766
640,0.944233495124
641,0.947467985483
642,0.950702475841
643,0.953936966199
644,0.956825965281
645,0.959370868862
646,0.961915772443
647,0.964460676024
648,0.967005579606
649,0.969550483187
650,0.972095386768
651,0.974527008614
652,0.976201719358
653,0.977876430102
654,0.979551140846
655,0.981225851589
656,0.982900562333
657,0.984575273077
658,0.986249983821
659,0.987388590669
660,0.988357295903
661,0.989326001137
662,0.990294706371
663,0.991263411605
664,0.992232116839
665,0.993200822074
666,0.993952643316
667,0.994363111636
668,0.994773579955
669,0.995184048275
670,0.995594516595
671,0.996004984914
672,0.996415453234
673,0.996805887446
674,0.996083463203
675,0.995361038961
676,0.994638614719
677,0.993916190476
678,0.993193766234
679,0.992471341991
680,0.991748917749
681,0.990144992785
682,0.988059813722
683,0.985974634658
684,0.983889455595
685,0.981804276532
686,0.979719097468
687,0.977633918405
688,0.975217910709
689,0.971934164152
690,0.968650417596
691,0.965366671039
692,0.962082924483
693,0.958799177926
694,0.95551543137
695,0.952231684814
696,0.9480912242
697,0.943861028913
698,0.939630833627
699,0.935400638341
700,0.931170443055
701,0.926940247769
702,0.922528967735
703,0.91741297645
704,0.912296985164
705,0.907180993879
706,0.902065002594
707,0.896949011308
708,0.891547996977
709,0.8858718065
710,0.880195616024
711,0.874519425548
712,0.868843235072
713,0.862853575208
714,0.856528677249
715,0.850203779289
716,0.84387888133
717,0.837553983371
718,0.831036250945
719,0.82446808768
720,0.817899924414
721,0.811331761149
722,0.804738001822
723,0.797919296083
724,0.791100590344
725,0.784281884606
726,0.777463178867
727,0.770585155791
728,0.763687007643
729,0.756788859494
730,0.749890711346
731,0.742832257496
732,0.735713368607
733,0.728594479718
734,0.721475590829
735,0.714200911229
736,0.706861281599
737,0.699521651969
738,0.69218202234
739,0.68499366843
740,0.677874779541
741,0.670755890653
742,0.663637001764
743,0.656481422693
744,0.649307348618
745,0.642133274544
746,0.63495920047
747,0.627714003527
748,0.620429559083
749,0.613145114638
750,0.605860670194
751,0.598507360376
752,0.591112545561
753,0.583717730747
754,0.576322915932
755,0.568994708995
756,0.56171026455
757,0.554425820106
758,0.547141375661
759,0.540009674981
760,0.532987208559
761,0.525964742136
762,0.518942275714
763,0.511977056473
764,0.50520617212
765,0.498435287766
766,0.491664403412
767,0.484893519058
768,0.478202469136
769,0.471580246914
770,0.464958024691
771,0.458335802469
772,0.451636961839
773,0.444592663915
774,0.43754836599
775,0.430504068066
776,0.423459770142
777,0.416708303639
778,0.410018507721
779,0.403328711802
780,0.396638915884
781,0.390035833711
782,0.383985960695
783,0.37793608768
784,0.371886214664
785,0.365836341648
786,0.359818710506
787,0.354062107332
788,0.348305504157
789,0.342548900983
790,0.336792297808
791,0.331048133031
792,0.325438953137
793,0.319829773243
794,0.314220593348
795,0.308611413454
796,0.30300223356
797,0.297842106996
798,0.292853366255
799,0.287864625514
