Wavelength (nm),Absorbance
330,0.227548781616
331,0.225797648585
332,0.224046515554
333,0.222295382523
334,0.220619328857
335,0.219111730883
336,0.217604132909
337,0.216096534935
338,0.214588936961
339,0.213081338987
340,0.211573741013
341,0.21006614304
342,0.208558545066
343,0.207050947092
344,0.206453162943
345,0.206058868088
346,0.205664573233
347,0.205270278379
348,0.204875983524
349,0.204481688669
350,0.204087393814
351,0.20369309896
352,0.203298804105
353,0.203369736986
354,0.204401861753
355,0.20543398652
356,0.206466111286
357,0.207498236053
358,0.20853036082
359,0.209562485587
360,0.210594610353
361,0.21162673512
362,0.212658859887
363,0.214165518234
364,0.215765891468
365,0.217366264702
366,0.218966637935
367,0.220567011169
368,0.222167384403
369,0.223767757637
370,0.225368130871
371,0.226968504104
372,0.228708508815
373,0.230714773811
374,0.232721038807
375,0.234727303803
376,0.236733568799
377,0.238739833795
378,0.240746098791
379,0.242752363787
380,0.244758628783
381,0.246764893779
382,0.24963515296
383,0.252654375601
384,0.255673598242
385,0.258692820882
386,0.261712043523
387,0.264731266164
388,0.267750488804
389,0.270769711445
390,0.273788934086
391,0.276808156726
392,0.279827379367
393,0.282533958716
394,0.285198619411
395,0.287863280106
396,0.290527940802
397,0.293192601497
398,0.295857262193
399,0.298521922888
400,0.301744772221
401,0.305170294043
402,0.308595815864
403,0.312021337686
404,0.315446859508
405,0.318872381329
406,0.322297903151
407,0.325896599616
408,0.329755470583
409,0.333614341551
410,0.337473212519
411,0.341332083486
412,0.345190954454
413,0.349049825422
414,0.35307309196
415,0.357262723296
416,0.361452354633
417,0.365641985969
418,0.369831617306
419,0.374021248642
420,0.378218797654
421,0.382714847687
422,0.38721089772
423,0.391706947753
424,0.396202997786
425,0.400699047819
426,0.405195097852
427,0.409854785118
428,0.414516784409
429,0.4191787837
430,0.423840782991
431,0.428502782282
432,0.433317830991
433,0.438385035293
434,0.443452239594
435,0.448519443895
436,0.453586648196
437,0.458685154034
438,0.463908272313
439,0.469131390593
440,0.474354508873
441,0.479577627152
442,0.484808171478
443,0.490343117714
444,0.495878063951
445,0.501413010187
446,0.506947956424
447,0.51248290266
448,0.51829272902
449,0.524152259812
450,0.530011790604
451,0.535871321396
452,0.541617442692
453,0.546357794598
454,0.551098146504
455,0.55583849841
456,0.560578850317
457,0.565319202223
458,0.571162100202
459,0.57723319961
460,0.583304299017
461,0.589375398425
462,0.595478365045
463,0.601792881174
464,0.608107397303
465,0.614421913432
466,0.620736429561
467,0.626529179695
468,0.632240308727
469,0.63795143776
470,0.643662566792
471,0.649920349337
472,0.656624300044
473,0.663328250751
474,0.670032201457
475,0.676514440892
476,0.682438865761
477,0.688363290629
478,0.694287715498
479,0.700212140366
480,0.706057047058
481,0.711784968792
482,0.717512890527
483,0.723240812261
484,0.728968733996
485,0.734740302657
486,0.740776821221
487,0.746813339784
488,0.752849858348
489,0.758886376911
490,0.765168293638
491,0.771636496403
492,0.778104699168
493,0.784572901933
494,0.791042300487
495,0.797541451591
496,0.804040602694
497,0.810539753798
498,0.817038904901
499,0.822338302093
500,0.827561420373
501,0.832784538652
502,0.838007656932
503,0.843230775211
504,0.84813153322
505,0.852932313086
506,0.857733092951
507,0.862533872816
508,0.867334652682
509,0.872056283396
510,0.876346145147
511,0.880636006898
512,0.884925868649
513,0.889215730401
514,0.893505592152
515,0.897795453903
516,0.901865589042
517,0.905834087026
518,0.90980258501
519,0.913771082993
520,0.917739580977
521,0.921708078961
522,0.925676576945
523,0.92933108514
524,0.932897617398
525,0.936464149656
526,0.940030681915
527,0.943597214173
528,0.947163746431
529,0.950730278689
530,0.954286584468
531,0.957202378352
532,0.960118172235
533,0.963033966119
534,0.965949760002
535,0.968865553886
536,0.971781347769
537,0.974697141653
538,0.977612935536
539,0.98052872942
540,0.982186904994
541,0.983787278227
542,0.985387651461
543,0.986988024695
544,0.988588397929
545,0.990188771163
546,0.991789144396
547,0.99338951763
548,0.994989890864
549,0.995862286446
550,0.995897077169
551,0.995931867891
552,0.995966658614
553,0.996001449336
554,0.996036240058
555,0.996071030781
556,0.996105821503
557,0.996140612226
558,0.996175402948
559,0.995430876861
560,0.994665480967
561,0.993900085072
562,0.993134689178
563,0.992369293283
564,0.991603897389
565,0.990838501495
566,0.9900731056
567,0.989307709706
568,0.988127946483
569,0.986504379434
570,0.984880812385
571,0.983257245336
572,0.981633678288
573,0.980010111239
574,0.97838654419
575,0.976762977141
576,0.975139410092
577,0.973515843044
578,0.971010104965
579,0.968497055112
580,0.965984005259
581,0.963470955405
582,0.960957905552
583,0.958444855698
584,0.955931805845
585,0.953418755992
586,0.950356939301
587,0.946334358655
588,0.94231177801
589,0.938289197365
590,0.93426661672
591,0.930244036075
592,0.92622145543
593,0.920984649469
594,0.915601365011
595,0.910218080554
596,0.904834796096
597,0.899269468208
598,0.892646242402
599,0.886023016596
600,0.879399790789
601,0.872776564983
602,0.86411688518
603,0.855048037254
604,0.845979189328
605,0.837168361428
606,0.828640135622
607,0.820111909815
608,0.811740659079
609,0.803735893683
610,0.795731128287
611,0.787726362891
612,0.77934423327
613,0.770924878431
614,0.762505523593
615,0.75404592127
616,0.745538864819
617,0.737031808367
618,0.728529093396
619,0.720592097428
620,0.71265510146
621,0.704718105492
622,0.697061322186
623,0.689628017914
624,0.682194713642
625,0.674816370122
626,0.667534112058
627,0.660251853993
628,0.652969595928
629,0.645687337864
630,0.638671992853
631,0.632132222055
632,0.625592451257
633,0.619052680459
634,0.612512909661
635,0.606168407093
636,0.599917673955
637,0.593666940817
638,0.587416207679
639,0.581109616863
640,0.574500875968
641,0.567892135073
642,0.561283394178
643,0.554674653283
644,0.547565826875
645,0.540240730692
646,0.53291563451
647,0.525590538328
648,0.518240221127
649,0.510882766899
650,0.50352531267
651,0.496167858442
652,0.488260660885
653,0.480206334381
654,0.472152007877
655,0.464332843728
656,0.457251448379
657,0.45017005303
658,0.443088657682
659,0.435949433686
660,0.428383391838
661,0.42081734999
662,0.413251308141
663,0.405799185774
664,0.39843225029
665,0.391065314806
666,0.383882099743
667,0.378035325549
668,0.372188551356
669,0.366341777162
670,0.360495002969
671,0.354648228775
672,0.348941933685
673,0.343243986471
674,0.337546039257
675,0.331848092043
676,0.326252070906
677,0.321067931121
678,0.315883791336
679,0.310699651551
680,0.305515511766
681,0.300346882737
682,0.295886629281
683,0.291426375824
684,0.286966122368
685,0.282505868912
686,0.278045615456
687,0.273585362
688,0.27008278816
689,0.26659811074
690,0.263113433321
691,0.259628755902
692,0.256144078482
693,0.252659401063
694,0.249174723644
695,0.245903955364
696,0.243408521766
697,0.240913088167
698,0.238417654568
699,0.23592222097
700,0.233426787371
701,0.230931353772
702,0.228435920174
703,0.225940486575
704,0.223532540782
705,0.221595857231
706,0.21965917368
707,0.217722490129
708,0.215785806578
709,0.213849123027
710,0.211912439476
711,0.209975755925
712,0.208039072374
713,0.206102388823
714,0.204520725761
715,0.203117499955
716,0.201714274149
717,0.200311048342
718,0.198907822536
719,0.197504596729
720,0.196101370923
721,0.194698145116
722,0.19329491931
723,0.191940244273
724,0.190815344246
725,0.189690444219
726,0.188565544193
727,0.187440644166
728,0.186315744139
729,0.185190844113
730,0.184065944086
731,0.182941044059
732,0.181816144033
733,0.180818043497
734,0.17987869399
735,0.178939344483
736,0.177999994977
737,0.17706064547
738,0.176121295963
739,0.175181946456
740,0.174242596949
741,0.173303247443
742,0.172386198737
743,0.171562818305
744,0.170739437874
745,0.169916057442
746,0.16909267701
747,0.168269296578
748,0.167445916146
749,0.166622535714
750,0.165799155282
751,0.16497577485
752,0.164225583315
753,0.163506575051
754,0.162787566786
755,0.162068558522
756,0.161349550257
757,0.160630541993
758,0.159911533728
759,0.159192525464
760,0.158473517199
761,0.15776182057
762,0.157077603028
763,0.156393385486
764,0.155709167944
765,0.155024950402
766,0.15434073286
767,0.153656515318
768,0.152972297776
769,0.152288080234
770,0.151603862692
771,0.150961341305
772,0.150335108301
773,0.149708875296
774,0.149082642292
775,0.148456409287
776,0.147830176283
777,0.147203943278
778,0.146577710273
779,0.145951477269
780,0.145335821637
781,0.144755976262
782,0.144176130887
783,0.143596285513
784,0.143016440138
785,0.142436594764
786,0.141856749389
787,0.141276904015
788,0.14069705864
789,0.140117213265
