Wavelength (nm)	Absorbance
390	0.158282721
391	0.159841647
392	0.161400574
393	0.162959501
394	0.164518428
395	0.166276118
396	0.168266042
397	0.170255967
398	0.172245891
399	0.174235815
400	0.176225739
401	0.178215663
402	0.180205587
403	0.182195512
404	0.184185436
405	0.186432605
406	0.188699817
407	0.190967029
408	0.193234241
409	0.195501454
410	0.197768666
411	0.200035878
412	0.20230309
413	0.204570303
414	0.207014582
415	0.209495746
416	0.211976911
417	0.214458075
418	0.21693924
419	0.219420404
420	0.221901568
421	0.224395554
422	0.2273429
423	0.230290245
424	0.233237591
425	0.236184937
426	0.239132283
427	0.242079629
428	0.245054657
429	0.248296242
430	0.251537827
431	0.254779413
432	0.258020998
433	0.261262583
434	0.264504168
435	0.26795895
436	0.271559453
437	0.275159956
438	0.278760459
439	0.282360963
440	0.285961466
441	0.28967371
442	0.293486145
443	0.297298579
444	0.301111013
445	0.304923447
446	0.308735881
447	0.312804744
448	0.316904059
449	0.321003374
450	0.325102689
451	0.329202004
452	0.333728993
453	0.338444747
454	0.3431605
455	0.347876254
456	0.352994119
457	0.358825625
458	0.364657132
459	0.370488639
460	0.376399603
461	0.382403712
462	0.388407822
463	0.394411932
464	0.400626728
465	0.407006865
466	0.413387002
467	0.419806079
468	0.426602312
469	0.433398545
470	0.440194777
471	0.446686697
472	0.452997485
473	0.459308273
474	0.46561906
475	0.471929848
476	0.478240636
477	0.484551423
478	0.490814121
479	0.497055559
480	0.503296997
481	0.509522711
482	0.5156948
483	0.521866889
484	0.528038978
485	0.534411356
486	0.540846973
487	0.547282589
488	0.553718206
489	0.5616099
490	0.569738667
491	0.577867434
492	0.586619199
493	0.595952801
494	0.605286403
495	0.614854911
496	0.624841212
497	0.634827513
498	0.644871962
499	0.654934787
500	0.665774426
501	0.678988622
502	0.690767907
503	0.699759404
504	0.708750902
505	0.717290919
506	0.725736125
507	0.734397661
508	0.743798346
509	0.753199031
510	0.75970354
511	0.764480537
512	0.769257534
513	0.774034531
514	0.778811528
515	0.781180479
516	0.783156284
517	0.785132089
518	0.787107894
519	0.789083699
520	0.791059504
521	0.793035309
522	0.795070476
523	0.798043104
524	0.801015732
525	0.803988361
526	0.806960989
527	0.809933617
528	0.812906245
529	0.815878873
530	0.823776031
531	0.831765073
532	0.839990837
533	0.850531933
534	0.861073029
535	0.871978606
536	0.883259428
537	0.89454025
538	0.905986159
539	0.917451912
540	0.928432574
541	0.938240793
542	0.948049012
543	0.95693782
544	0.965780908
545	0.974090995
546	0.97717767
547	0.980264345
548	0.98335102
549	0.986437695
550	0.98952437
551	0.992611045
552	0.992061864
553	0.989012175
554	0.985962486
555	0.982912798
556	0.979863109
557	0.97681342
558	0.973189656
559	0.963928855
560	0.953981184
561	0.941520064
562	0.929058943
563	0.915158891
564	0.900802042
565	0.886870585
566	0.873231887
567	0.85900104
568	0.844243693
569	0.829745063
570	0.815246433
571	0.81214574
572	0.809533091
573	0.806920441
574	0.804307792
575	0.801695143
576	0.802072582
577	0.806855222
578	0.811637862
579	0.816420502
580	0.821203142
581	0.825985782
582	0.833499413
583	0.845419998
584	0.857443463
585	0.870481134
586	0.883400336
587	0.896107773
588	0.906979245
589	0.916278658
590	0.925854645
591	0.937623013
592	0.948679256
593	0.956979418
594	0.965279579
595	0.972152146
596	0.974932378
597	0.977712609
598	0.980492841
599	0.983273073
600	0.986053305
601	0.98340074
602	0.977491562
603	0.971582384
604	0.965673206
605	0.959764028
606	0.951344633
607	0.939531209
608	0.921307195
609	0.889641705
610	0.865192739
611	0.836096849
612	0.791521288
613	0.751017875
614	0.720394355
615	0.678189946
616	0.610517693
617	0.562311002
618	0.539888923
619	0.462547903
620	0.438351664
621	0.401388479
622	0.341182445
623	0.294489381
624	0.268010558
625	0.246262613
626	0.22074029
627	0.201598699
628	0.186471302
629	0.171019794
630	0.155185034
631	0.140417583
632	0.12740513
633	0.11788825
634	0.112289869
635	0.106691488
636	0.101093106
637	0.096652219
638	0.092812688
639	0.088973158
640	0.085133628
641	0.081294097
642	0.077454567
643	0.074850281
644	0.073099596
645	0.071348911
646	0.069598226
647	0.067847541
648	0.066096856
649	0.064346171
650	0.062595486
651	0.060844801
652	0.059983606
653	0.059194972
654	0.058406338
655	0.057617705
656	0.056829071
657	0.056040438
658	0.055251804
659	0.054463171
660	0.053674537
661	0.053004263
662	0.052518245
663	0.052032226
664	0.051546208
665	0.05106019
666	0.050574171
667	0.050088153
668	0.049602134
669	0.049116116
670	0.048630098
671	0.048199134
672	0.047777307
673	0.04735548
674	0.046933652
675	0.046511825
676	0.046089998
677	0.045668171
678	0.045246343
679	0.044824516
680	0.044468097
681	0.044248013
682	0.044027929
683	0.043807845
684	0.043587761
685	0.043367678
686	0.043147594
687	0.04292751
688	0.042707426
689	0.042487343
690	0.042172991
691	0.041833695
692	0.041494399
693	0.041155103
694	0.040815808
695	0.040476512
696	0.040137216
697	0.03979792
698	0.039458624
699	0.039154721
700	0.038952978
701	0.038751234
702	0.038549491
703	0.038347747
704	0.038146004
705	0.03794426
706	0.037742517
707	0.037540773
708	0.03733903
709	0.037183751
710	0.037046199
711	0.036908646
712	0.036771094
713	0.036633542
714	0.036495989
715	0.036358437
716	0.036220885
717	0.036083332
718	0.035935304
719	0.035742731
720	0.035550158
721	0.035357584
722	0.035165011
723	0.034972438
724	0.034779864
725	0.034587291
726	0.034394718
727	0.034202145
728	0.034063789
729	0.033953747
730	0.033843706
731	0.033733664
732	0.033623622
733	0.03351358
734	0.033403538
735	0.033293496
736	0.033183454
737	0.033071148
738	0.032942765
739	0.032814383
740	0.032686001
741	0.032557619
742	0.032429237
743	0.032300854
744	0.032172472
745	0.03204409
746	0.031915708
747	0.031792736
748	0.031673524
749	0.031554312
750	0.0314351
751	0.031315888
752	0.031196676
753	0.031077464
754	0.030958252
755	0.03083904
756	0.030721903
757	0.030639372
758	0.03055684
759	0.030474309
760	0.030391777
761	0.030309246
762	0.030226715
763	0.030144183
764	0.030061652
765	0.02997912
766	0.029939763
767	0.029939763
768	0.029939763
769	0.029939763
770	0.029939763
771	0.029939763
772	0.029939763
773	0.029939763
774	0.029939763
775	0.029939763
776	0.029939763
777	0.029939763
778	0.029939763
779	0.029939763
780	0.029939763
781	0.029939763
782	0.029939763
783	0.029939763
784	0.029939763
785	0.029939763
786	0.029939763
787	0.029939763
788	0.029939763
789	0.029939763
790	0.029939763
791	0.029939763
792	0.029939763
793	0.029939763
794	0.029939763
795	0.029998995
796	0.030063187
797	0.030127378
798	0.030191569
799	0.03025576
