Wavelength (nm),Absorbance
390,0.131522135
391,0.132274088
392,0.133026041
393,0.133777994
394,0.134529947
395,0.135472206
396,0.136636816
397,0.137801426
398,0.138966036
399,0.140130646
400,0.141295256
401,0.142459866
402,0.143624476
403,0.144789086
404,0.145953696
405,0.147288452
406,0.148636465
407,0.149984478
408,0.151332491
409,0.152680504
410,0.154028518
411,0.155376531
412,0.156724544
413,0.158072557
414,0.159489264
415,0.16101151
416,0.162533756
417,0.164056002
418,0.165578248
419,0.167100494
420,0.16862274
421,0.170144986
422,0.171667233
423,0.173189479
424,0.174861706
425,0.176558185
426,0.178254664
427,0.179951143
428,0.181647622
429,0.183344102
430,0.185040581
431,0.18673706
432,0.188433539
433,0.190211069
434,0.192155142
435,0.194099216
436,0.196043289
437,0.197987362
438,0.199931436
439,0.201875509
440,0.203819582
441,0.205763656
442,0.207707729
443,0.209921169
444,0.212204538
445,0.214487907
446,0.216771276
447,0.219054646
448,0.221338015
449,0.223621384
450,0.225904753
451,0.228188122
452,0.23052218
453,0.233000174
454,0.235478168
455,0.237956162
456,0.240434155
457,0.242912149
458,0.245390143
459,0.247868136
460,0.250357869
461,0.25327054
462,0.256183212
463,0.259095883
464,0.262008554
465,0.264921225
466,0.267833896
467,0.270772899
468,0.27396693
469,0.277160961
470,0.280354993
471,0.283549024
472,0.286743055
473,0.289937087
474,0.293318601
475,0.296828526
476,0.30033845
477,0.303848375
478,0.307358299
479,0.310868224
480,0.314610291
481,0.318560915
482,0.32251154
483,0.326462165
484,0.33041279
485,0.334363414
486,0.33871371
487,0.343111717
488,0.347509725
489,0.351907732
490,0.356337246
491,0.360984071
492,0.365630895
493,0.37027772
494,0.374924544
495,0.379609487
496,0.384362227
497,0.389114967
498,0.393867706
499,0.398635317
500,0.403949016
501,0.409262714
502,0.414576413
503,0.419886993
504,0.425176035
505,0.430465076
506,0.435754117
507,0.441182726
508,0.447088206
509,0.452993685
510,0.458899165
511,0.464591391
512,0.469843446
513,0.475095501
514,0.480347556
515,0.485991832
516,0.492163921
517,0.49833601
518,0.504508099
519,0.510680188
520,0.516852277
521,0.523024366
522,0.529469908
523,0.536196792
524,0.542923675
525,0.549643902
526,0.556116505
527,0.562589107
528,0.56906171
529,0.576609692
530,0.584165465
531,0.591721238
532,0.59874789
533,0.605752171
534,0.612756452
535,0.619999924
536,0.62748965
537,0.634979376
538,0.642467298
539,0.649887674
540,0.657308051
541,0.664728428
542,0.671838506
543,0.678704088
544,0.68556967
545,0.692428831
546,0.699225064
547,0.706021297
548,0.71281753
549,0.71939674
550,0.725846227
551,0.732295713
552,0.738690007
553,0.744792747
554,0.750895487
555,0.756998227
556,0.762631421
557,0.768056079
558,0.773480736
559,0.778905394
560,0.784568426
561,0.790293905
562,0.796019385
563,0.801744864
564,0.807354896
565,0.812828869
566,0.818302842
567,0.823776814
568,0.829641015
569,0.835813104
570,0.841985193
571,0.84816368
572,0.854405119
573,0.860646557
574,0.866887995
575,0.873389723
576,0.880047257
577,0.886704791
578,0.893278119
579,0.899405516
580,0.905532913
581,0.91166031
582,0.917672209
583,0.923353305
584,0.929034401
585,0.934715497
586,0.940396592
587,0.944917875
588,0.949345664
589,0.953773452
590,0.958201241
591,0.96262903
592,0.965694074
593,0.968243087
594,0.970792099
595,0.973341112
596,0.975890124
597,0.978439137
598,0.98098815
599,0.983537162
600,0.983982271
601,0.984257376
602,0.984532481
603,0.984807585
604,0.98508269
605,0.985357795
606,0.9856329
607,0.985908004
608,0.986183109
609,0.986091758
610,0.985431506
611,0.984771255
612,0.984111004
613,0.983450752
614,0.982790501
615,0.98213025
616,0.981469998
617,0.980809747
618,0.980149496
619,0.980559701
620,0.981146591
621,0.981733481
622,0.982320371
623,0.982907261
624,0.983494151
625,0.984081041
626,0.984667931
627,0.985254821
628,0.986038334
629,0.987230455
630,0.988422575
631,0.989614696
632,0.990806816
633,0.991998937
634,0.993191057
635,0.994383178
636,0.995575298
637,0.996767418
638,0.996537082
639,0.995931852
640,0.995326621
641,0.994721391
642,0.99411616
643,0.99351093
644,0.9929057
645,0.992300469
646,0.991695239
647,0.990421912
648,0.9872268
649,0.984031688
650,0.980836576
651,0.977641464
652,0.974446352
653,0.97125124
654,0.96735015
655,0.961979739
656,0.956609329
657,0.951238918
658,0.945868507
659,0.93957062
660,0.933264455
661,0.926958291
662,0.919885936
663,0.912118813
664,0.90435169
665,0.896128693
666,0.887868419
667,0.879408187
668,0.870531474
669,0.861654762
670,0.851384927
671,0.840584927
672,0.831152097
673,0.822803761
674,0.814455424
675,0.805478159
676,0.795930214
677,0.786382269
678,0.775175747
679,0.763833281
680,0.754965129
681,0.746365814
682,0.737602597
683,0.728725885
684,0.719849172
685,0.711094616
686,0.702341192
687,0.694014501
688,0.686353053
689,0.678691605
690,0.671165893
691,0.663884215
692,0.656602537
693,0.649320859
694,0.642842191
695,0.636462054
696,0.630081917
697,0.623907607
698,0.618012915
699,0.612118223
700,0.606223532
701,0.59986413
702,0.593483993
703,0.587103856
704,0.580587635
705,0.5739301
706,0.567272566
707,0.560606757
708,0.553602476
709,0.546598195
710,0.539593914
711,0.532087336
712,0.524181514
713,0.516275693
714,0.508303565
715,0.499664622
716,0.491025678
717,0.482359093
718,0.473235805
719,0.464112518
720,0.455327313
721,0.446943751
722,0.43856019
723,0.429542679
724,0.420419391
725,0.411137696
726,0.40139797
727,0.391658244
728,0.38297142
729,0.374834434
730,0.366690432
731,0.358430158
732,0.350169884
733,0.341853283
734,0.333469722
735,0.32508616
736,0.317049694
737,0.30907122
738,0.301092747
739,0.29391649
740,0.286912209
741,0.279907928
742,0.27327476
743,0.267310719
744,0.261346678
745,0.255382637
746,0.249690182
747,0.244031278
748,0.238372373
749,0.232713469
750,0.227969973
751,0.223235727
752,0.21850148
753,0.213767233
754,0.209238799
755,0.205426365
756,0.201613931
757,0.197801497
758,0.193989063
759,0.190176629
760,0.186785848
761,0.183688245
762,0.180590643
763,0.17749304
764,0.174395437
765,0.171297834
766,0.168200232
767,0.165597597
768,0.163254011
769,0.160910424
770,0.158566838
771,0.156223251
772,0.153879665
773,0.151536078
774,0.149192492
775,0.146848905
776,0.145118513
777,0.143394523
778,0.141670533
779,0.139946544
780,0.138222554
781,0.136498565
782,0.134774575
783,0.133050585
784,0.131326596
785,0.129799232
786,0.12850624
787,0.127213248
788,0.125920256
789,0.124627263
790,0.123334271
791,0.122041279
792,0.120748287
793,0.119455295
794,0.118162303
795,0.117368558
796,0.116616605
797,0.115864652
798,0.115112699
799,0.114360746
